42����b���b,0,53643
S,10552,42208020,336,0,0,8696
S,10553,42212020,331,0,0,12354
S,10554,42216020,327,0,0,173
S,10555,42220020,335,0,0,4868
S,10556,42224020,348,0,0,25456
S,10557,42228020,350,0,0,29651
S,10558,42232020,341,0,0,16955
S,10559,42236020,333,0,0,21122
S,10560,42240020,339,0,0,41603
S,10561,42244020,352,0,0,48401
S,10562,42248020,355,0,0,36337
S,10563,42252020,345,0,0,40042
S,10564,42256020,336,0,0,60420
S,10565,42260020,339,0,0,64678
S,10566,42264020,349,0,0,53067
S,10567,42268024,352,0,0,57307
S,10568,42272024,345,0,0,12172
S,10569,42276020,335,0,0,15927
S,10570,42280020,338,0,0,3785
S,10571,42284020,345,0,0,6499
S,10572,42288020,343,0,0,26890
S,10573,42292020,333,0,0,31153
S,10574,42296020,324,0,0,18523
S,10575,42300020,330,0,0,22772
S,10576,42304024,341,0,0,43160
S,10577,42308020,342,0,0,47926
S,10578,42312020,332,0,0,35791
S,10579,42316024,324,0,0,39530
S,10580,42320020,330,0,0,59919
S,10581,42324020,340,0,0,64176
S,10582,42328020,341,0,0,62802
S,10583,42332024,331,0,0,50657
S,10584,42336020,324,0,0,54669
S,10585,42340020,330,0,0,9249
S,10586,42344020,340,0,0,13532
S,10587,42348020,338,0,0,1915
S,10588,42352020,322,0,0,5900
S,10589,42356020,315,0,0,26580
S,10590,42360024,337,0,0,30289
S,10591,42364020,384,0,0,17965
S,10592,42368020,441,0,0,22091
S,10593,42372020,495,0,0,41404
S,10594,42376020,542,0,0,45742
S,10595,42380020,563,0,0,33570
S,10596,42384020,529,0,0,37735
S,10597,42388020,455,0,0,57360
S,10598,42392020,382,0,0,62282
S,10599,42396020,334,0,0,50139
S,10600,42400020,320,0,0,54202
S,10601,42404020,326,0,0,8732
S,10602,42408020,327,0,0,13054
S,10603,42412020,315,0,0,3363
S,10604,42416020,304,0,0,7503
S,10605,42420020,309,0,0,28139
S,10606,42424024,319,0,0,31758
S,10607,42428020,321,0,0,19677
S,10608,42432024,311,0,0,23768
S,10609,42436024,303,0,0,44897
S,10610,42440020,309,0,0,49044
S,10611,42444020,321,0,0,36417
S,10612,42448024,323,0,0,40488
S,10613,42452024,314,0,0,61168
S,10614,42456020,306,0,0,63767
S,10615,42460020,313,0,0,51645
S,10616,42464020,325,0,0,55726
S,10617,42468024,327,0,0,10254
S,10618,42472020,317,0,0,14491
S,10619,42476020,309,0,0,2866
S,10620,42480020,316,0,0,7004
S,10621,42484024,329,0,0,27524
S,10622,42488020,331,0,0,31337
S,10623,42492020,321,0,0,19138
S,10624,42496020,314,0,0,23078
S,10625,42500020,320,0,0,22013
S,10626,42504020,332,0,0,42258
S,10627,42508020,335,0,0,46256
S,10628,42512020,325,0,0,34013
S,10629,42516020,317,0,0,37892
S,10630,42520020,325,0,0,59295
S,10631,42524020,338,0,0,63273
S,10632,42528020,340,0,0,51008
S,10633,42532020,330,0,0,55039
S,10634,42536020,321,0,0,9750
S,10635,42540020,330,0,0,12732
S,10636,42544020,343,0,0,454
S,10637,42548020,345,0,0,4457
S,10638,42552020,335,0,0,24732
S,10639,42556020,328,0,0,28730
S,10640,42560020,338,0,0,16479
S,10641,42564020,352,0,0,21452
S,10642,42568020,355,0,0,41772
S,10643,42572020,345,0,0,45751
S,10644,42576020,338,0,0,33499
S,10645,42580020,348,0,0,37492
S,10646,42584020,362,0,0,60833
S,10647,42588020,366,0,0,64772
S,10648,42592020,356,0,0,52577
S,10649,42596024,348,0,0,56564
S,10650,42600020,356,0,0,11296
S,10651,42604020,370,0,0,16279
S,10652,42608020,373,0,0,4087
S,10653,42612020,363,0,0,8008
S,10654,42616020,354,0,0,28322
S,10655,42620020,361,0,0,32264
S,10656,42624020,373,0,0,20043
S,10657,42628020,374,0,0,23017
S,10658,42632024,361,0,0,43289
S,10659,42636020,350,0,0,47235
S,10660,42640020,354,0,0,35032
S,10661,42644020,363,0,0,39024
S,10662,42648020,361,0,0,60305
S,10663,42652020,344,0,0,64257
S,10664,42656020,330,0,0,52092
S,10665,42660020,334,0,0,56025
S,10666,42664020,344,0,0,10797
S,10667,42668020,343,0,0,9603
S,10668,42672020,329,0,0,13818
S,10669,42676020,315,0,0,1321
S,10670,42680020,320,0,0,5297
S,10671,42684020,333,0,0,25629
S,10672,42688020,333,0,0,29794
S,10673,42692020,321,0,0,18383
S,10674,42696024,310,0,0,22359
S,10675,42700020,318,0,0,42738
S,10676,42704020,331,0,0,46816
S,10677,42708020,332,0,0,34374
S,10678,42712020,320,0,0,37289
S,10679,42716020,310,0,0,57726
S,10680,42720020,317,0,0,61722
S,10681,42724020,330,0,0,49356
S,10682,42728024,332,0,0,53285
S,10683,42732020,321,0,0,9090
S,10684,42736020,312,0,0,13212
S,10685,42740024,321,0,0,840
S,10686,42744020,333,0,0,4779
S,10687,42748020,334,0,0,25097
S,10688,42752020,323,0,0,29211
S,10689,42756020,315,0,0,19906
S,10690,42760020,323,0,0,23897
S,10691,42764024,335,0,0,44280
S,10692,42768020,336,0,0,48268
S,10693,42772020,325,0,0,35896
S,10694,42776020,316,0,0,40866
S,10695,42780020,324,0,0,61307
S,10696,42784020,337,0,0,65281
S,10697,42788020,338,0,0,52899
S,10698,42792020,326,0,0,56916
S,10699,42796020,317,0,0,10639
S,10700,42800020,324,0,0,14737
S,10701,42804020,338,0,0,2342
S,10702,42808020,340,0,0,6339
S,10703,42812020,329,0,0,26751
S,10704,42816020,319,0,0,30838
S,10705,42820020,327,0,0,19375
S,10706,42824024,340,0,0,23379
S,10707,42828020,341,0,0,43775
S,10708,42832020,330,0,0,47751
S,10709,42836020,320,0,0,35372
S,10710,42840020,328,0,0,34247
S,10711,42844024,340,0,0,38262
S,10712,42848020,341,0,0,58644
S,10713,42852020,330,0,0,62634
S,10714,42856020,321,0,0,50242
S,10715,42860024,328,0,0,55270
S,10716,42864020,340,0,0,10130
S,10717,42868020,340,0,0,14131
S,10718,42872020,328,0,0,1740
S,10719,42876020,319,0,0,5658
S,10720,42880020,327,0,0,26173
S,10721,42884020,339,0,0,29064
S,10722,42888024,339,0,0,16743
S,10723,42892020,327,0,0,20702
S,10724,42896024,319,0,0,41165
S,10725,42900024,327,0,0,45076
S,10726,42904020,338,0,0,33774
S,10727,42908020,338,0,0,37711
S,10728,42912020,327,0,0,58165
S,10729,42916024,319,0,0,62176
S,10730,42920020,325,0,0,49781
S,10731,42924020,337,0,0,56768
S,10732,42928020,338,0,0,11685
S,10733,42932020,327,0,0,15633
S,10734,42936024,319,0,0,3206
S,10735,42940020,326,0,0,7250
S,10736,42944020,338,0,0,27705
S,10737,42948020,339,0,0,32665
S,10738,42952024,328,0,0,20333
S,10739,42956024,320,0,0,24260
S,10740,42960020,328,0,0,44711
S,10741,42964020,340,0,0,48666
S,10742,42968020,341,0,0,35320
S,10743,42972020,330,0,0,39238
S,10744,42976020,322,0,0,59681
S,10745,42980024,330,0,0,63620
S,10746,42984020,343,0,0,51318
S,10747,42988024,347,0,0,56279
S,10748,42992020,339,0,0,11179
S,10749,42996020,334,0,0,15127
S,10750,43000020,342,0,0,2796
S,10751,43004020,352,0,0,6779
S,10752,43008020,353,0,0,27109
S,10753,43012020,343,0,0,26226
S,10754,43016024,337,0,0,30363
S,10755,43020024,345,0,0,18226
S,10756,43024020,358,0,0,22374
S,10757,43028020,357,0,0,42948
S,10758,43032020,343,0,0,46101
S,10759,43036020,333,0,0,33966
S,10760,43040020,339,0,0,38111
S,10761,43044024,349,0,0,58748
S,10762,43048020,347,0,0,62869
S,10763,43052020,332,0,0,49699
S,10764,43056020,321,0,0,53833
S,10765,43060024,326,0,0,8930
S,10766,43064020,337,0,0,13082
S,10767,43068024,337,0,0,951
S,10768,43072020,326,0,0,5075
S,10769,43076020,318,0,0,24586
S,10770,43080020,324,0,0,28819
S,10771,43084020,336,0,0,16678
S,10772,43088024,337,0,0,20812
S,10773,43092020,326,0,0,41462
S,10774,43096024,318,0,0,48737
S,10775,43100020,325,0,0,36535
S,10776,43104020,337,0,0,40652
S,10777,43108024,339,0,0,61283
S,10778,43112020,327,0,0,65432
S,10779,43116020,317,0,0,52291
S,10780,43120020,320,0,0,56409
S,10781,43124020,329,0,0,11506
S,10782,43128020,339,0,0,15627
S,10783,43132020,353,0,0,3480
S,10784,43136020,388,0,0,7458
S,10785,43140020,454,0,0,27329
S,10786,43144020,527,0,0,31211
S,10787,43148020,570,0,0,18559
S,10788,43152020,546,0,0,22528
S,10789,43156020,472,0,0,43867
S,10790,43160020,408,0,0,47352
S,10791,43164020,369,0,0,34992
S,10792,43168020,340,0,0,39162
S,10793,43172020,317,0,0,59698
S,10794,43176020,309,0,0,63961
S,10795,43180020,317,0,0,63088
S,10796,43184020,326,0,0,50796
S,10797,43188020,325,0,0,54990
S,10798,43192020,313,0,0,10064
S,10799,43196020,305,0,0,14329
S,10800,43200020,312,0,0,1935
S,10801,43204020,323,0,0,5205
S,10802,43208020,324,0,0,25777
S,10803,43212020,315,0,0,30063
S,10804,43216020,308,0,0,17671
S,10805,43220020,316,0,0,21934
S,10806,43224020,328,0,0,41529
S,10807,43228020,330,0,0,45722
S,10808,43232020,321,0,0,33534
S,10809,43236024,314,0,0,37672
S,10810,43240020,321,0,0,58300
S,10811,43244024,333,0,0,61469
S,10812,43248020,334,0,0,49269
S,10813,43252020,325,0,0,53471
S,10814,43256020,319,0,0,8513
S,10815,43260020,327,0,0,12696
S,10816,43264020,338,0,0,402
S,10817,43268020,339,0,0,7730
S,10818,43272020,328,0,0,28362
S,10819,43276020,322,0,0,32609
S,10820,43280024,329,0,0,20225
S,10821,43284020,340,0,0,24497
S,10822,43288020,341,0,0,44115
S,10823,43292020,333,0,0,48362
S,10824,43296020,327,0,0,35983
S,10825,43300020,335,0,0,40230
S,10826,43304020,346,0,0,60880
S,10827,43308020,348,0,0,64119
S,10828,43312024,339,0,0,51731
S,10829,43316020,333,0,0,55968
S,10830,43320020,341,0,0,11098
S,10831,43324020,354,0,0,15308
S,10832,43328020,356,0,0,2997
S,10833,43332020,347,0,0,6187
S,10834,43336024,342,0,0,26825
S,10835,43340024,350,0,0,31072
S,10836,43344020,361,0,0,18748
S,10837,43348020,363,0,0,22943
S,10838,43352020,355,0,0,22132
S,10839,43356020,351,0,0,42729
S,10840,43360020,360,0,0,46769
S,10841,43364024,372,0,0,34560
S,10842,43368020,373,0,0,38894
S,10843,43372020,363,0,0,58449
S,10844,43376020,358,0,0,62523
S,10845,43380020,366,0,0,50322
S,10846,43384020,377,0,0,54630
S,10847,43388020,379,0,0,9670
S,10848,43392020,368,0,0,13714
S,10849,43396020,361,0,0,554
S,10850,43400020,368,0,0,4816
S,10851,43404020,378,0,0,25467
S,10852,43408020,376,0,0,29470
S,10853,43412020,363,0,0,17324
S,10854,43416020,353,0,0,20549
S,10855,43420020,355,0,0,41190
S,10856,43424020,361,0,0,45187
S,10857,43428024,358,0,0,33057
S,10858,43432020,345,0,0,37361
S,10859,43436020,336,0,0,61017
S,10860,43440020,339,0,0,65085
S,10861,43444024,344,0,0,52891
S,10862,43448024,341,0,0,57205
S,10863,43452020,330,0,0,12230
S,10864,43456020,322,0,0,16305
S,10865,43460020,328,0,0,3098
S,10866,43464020,336,0,0,7393
S,10867,43468020,335,0,0,27999
S,10868,43472020,325,0,0,32050
S,10869,43476020,320,0,0,19862
S,10870,43480020,328,0,0,23165
S,10871,43484020,337,0,0,43717
S,10872,43488020,337,0,0,47786
S,10873,43492020,327,0,0,35613
S,10874,43496020,321,0,0,39928
S,10875,43500020,329,0,0,59473
S,10876,43504020,338,0,0,63533
S,10877,43508020,339,0,0,51341
S,10878,43512020,330,0,0,55671
S,10879,43516024,325,0,0,10714
S,10880,43520020,332,0,0,14656
S,10881,43524020,342,0,0,14075
S,10882,43528020,342,0,0,1560
S,10883,43532020,333,0,0,6050
S,10884,43536020,328,0,0,26560
S,10885,43540020,334,0,0,30567
S,10886,43544020,342,0,0,17564
S,10887,43548020,341,0,0,21566
S,10888,43552024,331,0,0,42051
S,10889,43556020,325,0,0,46560
S,10890,43560020,334,0,0,34056
S,10891,43564024,344,0,0,37555
S,10892,43568020,344,0,0,58072
S,10893,43572024,335,0,0,62050
S,10894,43576020,328,0,0,50058
S,10895,43580020,335,0,0,54060
S,10896,43584020,343,0,0,9034
S,10897,43588020,341,0,0,12521
S,10898,43592024,332,0,0,31
S,10899,43596020,327,0,0,4537
S,10900,43600020,334,0,0,25047
S,10901,43604020,342,0,0,29038
S,10902,43608024,341,0,0,20098
S,10903,43612020,331,0,0,24113
S,10904,43616020,326,0,0,44627
S,10905,43620024,334,0,0,49142
S,10906,43624020,342,0,0,36609
S,10907,43628020,341,0,0,40099
S,10908,43632020,331,0,0,60634
S,10909,43636020,326,0,0,64630
S,10910,43640024,332,0,0,52627
S,10911,43644020,339,0,0,56609
S,10912,43648020,338,0,0,11644
S,10913,43652020,330,0,0,15045
S,10914,43656024,325,0,0,2597
S,10915,43660020,333,0,0,7040
S,10916,43664020,342,0,0,27644
S,10917,43668020,341,0,0,31582
S,10918,43672020,332,0,0,18596
S,10919,43676020,327,0,0,22542
S,10920,43680020,333,0,0,43115
S,10921,43684024,341,0,0,47582
S,10922,43688020,340,0,0,35120
S,10923,43692020,332,0,0,34441
S,10924,43696020,328,0,0,38634
S,10925,43700024,335,0,0,58944
S,10926,43704020,344,0,0,63416
S,10927,43708020,342,0,0,50967
S,10928,43712020,331,0,0,55157
S,10929,43716020,327,0,0,9433
S,10930,43720024,334,0,0,13375
S,10931,43724024,343,0,0,1415
S,10932,43728024,341,0,0,5602
S,10933,43732020,332,0,0,25942
S,10934,43736020,328,0,0,29361
S,10935,43740020,335,0,0,16919
S,10936,43744020,344,0,0,21103
S,10937,43748020,345,0,0,41935
S,10938,43752024,338,0,0,45867
S,10939,43756020,335,0,0,32923
S,10940,43760020,344,0,0,37099
S,10941,43764020,354,0,0,57456
S,10942,43768020,354,0,0,61843
S,10943,43772020,345,0,0,49417
S,10944,43776020,340,0,0,53531
S,10945,43780024,348,0,0,11943784020,358,0,0,15980
S,10947,43788020,359,0,0,4044
S,10948,43792020,351,0,0,8083
S,10949,43796020,344,0,0,28469
S,10950,43800020,348,0,0,31954
S,10951,43804020,354,0,0,19533
S,10952,43808020,352,0,0,23584
S,10953,43812020,342,0,0,44471
S,10954,43816020,335,0,0,48461
S,10955,43820020,340,0,0,35575
S,10956,43824020,345,0,0,39581
S,10957,43828020,342,0,0,59955
S,10958,43832020,332,0,0,64458
S,10959,43836020,327,0,0,52064
S,10960,43840020,333,0,0,56085
S,10961,43844020,342,0,0,10414
S,10962,43848020,341,0,0,14414
S,10963,43852020,332,0,0,2550
S,10964,43856024,327,0,0,6550
S,10965,43860020,335,0,0,26931
S,10966,43864020,343,0,0,26312
S,10967,43868020,342,0,0,30312
S,10968,43872020,333,0,0,17948
S,10969,43876024,330,0,0,22454
S,10970,43880024,337,0,0,42830
S,10971,43884020,342,0,0,46308
S,10972,43888020,335,0,0,33946
S,10973,43892020,323,0,0,37943
S,10974,43896020,325,0,0,58834
S,10975,43900020,356,0,0,62802
S,10976,43904020,409,0,0,50672
S,10977,43908020,469,0,0,53789
S,10978,43912020,519,0,0,8495
S,10979,43916020,556,0,0,12453
S,10980,43920020,549,0,0,203
S,10981,43924020,492,0,0,5027
S,10982,43928024,417,0,0,24577
S,10983,43932020,358,0,0,28779
S,10984,43936020,323,0,0,16417
S,10985,43940020,319,0,0,20988
S,10986,43944020,327,0,0,41319
S,10987,43948020,328,0,0,48841
S,10988,43952020,319,0,0,36569
S,10989,43956020,313,0,0,40574
S,10990,43960020,320,0,0,61412
S,10991,43964020,327,0,0,65346
S,10992,43968020,326,0,0,53052
S,10993,43972020,318,0,0,56549
S,10994,43976020,313,0,0,11264
S,10995,43980020,321,0,0,15833
S,10996,43984020,330,0,0,3509
S,10997,43988020,330,0,0,7444
S,10998,43992020,321,0,0,27388
S,10999,43996020,317,0,0,31265
S,11000,44000020,326,0,0,18997
S,11001,44004024,335,0,0,23441
S,11002,44008020,335,0,0,43902
S,11003,44012020,326,0,0,47318
S,11004,44016020,323,0,0,34996
S,11005,44020020,330,0,0,38940
S,11006,44024020,338,0,0,59879
S,11007,44028020,337,0,0,63813
S,11008,44032020,329,0,0,51394
S,11009,44036020,325,0,0,51055
S,11010,44040020,333,0,0,55172
S,11011,44044020,341,0,0,9730
S,11012,44048020,340,0,0,13924
S,11013,44052020,332,0,0,1757
S,11014,44056020,327,0,0,5429
S,11015,44060020,334,0,0,26013
S,11016,44064020,342,0,0,30186
S,11017,44068020,342,0,0,17483
S,11018,44072020,335,0,0,21681
S,11019,44076020,333,0,0,41746
S,11020,44080020,340,0,0,45932
S,11021,44084020,348,0,0,33733
S,11022,44088024,348,0,0,37418
S,11023,44092020,340,0,0,57999
S,11024,44096020,339,0,0,62199
S,11025,44100020,348,0,0,49497
S,11026,44104020,358,0,0,53632
S,11027,44108020,358,0,0,8224
S,11028,44112020,351,0,0,12414
S,11029,44116020,348,0,0,220
S,11030,44120020,357,0,0,7942
S,11031,44124020,368,0,0,28594
S,11032,44128020,367,0,0,32706
S,11033,44132020,360,0,0,20068
S,11034,44136020,356,0,0,24203
S,11035,44140020,364,0,0,44322
S,11036,44144020,372,0,0,48477
S,11037,44148020,371,0,0,36347
S,11038,44152020,364,0,0,39943
S,11039,44156024,360,0,0,60590
S,11040,44160020,368,0,0,64741
S,11041,44164020,377,0,0,52045
S,11042,44168024,375,0,0,56236
S,11043,44172020,364,0,0,10777
S,11044,44176020,359,0,0,14965
S,11045,44180020,365,0,0,2782
S,11046,44184020,370,0,0,6434
S,11047,44188020,365,0,0,27036
S,11048,44192020,351,0,0,31169
S,11049,44196020,341,0,0,18538
S,11050,44200020,344,0,0,22660
S,11051,44204020,347,0,0,22310
S,11052,44208020,342,0,0,42828
S,11053,44212020,332,0,0,47095
S,11054,44216020,327,0,0,34335
S,11055,44220020,332,0,0,38581
S,11056,44224020,338,0,0,59092
S,11057,44228020,335,0,0,62824
S,11058,44232020,324,0,0,50560
S,11059,44236020,320,0,0,54309
S,11060,44240020,326,0,0,9285
S,11061,44244020,334,0,0,13548
S,11062,44248024,333,0,0,768
S,11063,44252020,325,0,0,5029
S,11064,44256020,322,0,0,25549
S,11065,44260020,329,0,0,29287
S,11066,44264024,336,0,0,17041
S,11067,44268020,334,0,0,20770
S,11068,44272020,326,0,0,41293
S,11069,44276024,323,0,0,45541
S,11070,44280020,330,0,0,32771
S,11071,44284020,339,0,0,37051
S,11072,44288020,339,0,0,57508
S,11073,44292020,331,0,0,65309
S,11074,44296020,327,0,0,53234
S,11075,44300020,334,0,0,56922
S,11076,44304020,342,0,0,11810
S,11077,44308020,340,0,0,16001
S,11078,44312024,332,0,0,3446
S,11079,44316020,329,0,0,7646
S,11080,44320020,336,0,0,28072
S,11081,44324020,343,0,0,31758
S,11082,44328020,341,0,0,19695
S,11083,44332020,334,0,0,23381
S,11084,44336020,330,0,0,43830
S,11085,44340020,336,0,0,48013
S,11086,44344020,342,0,0,35432
S,11087,44348020,340,0,0,39627
S,11088,44352020,332,0,0,60076
S,11089,44356020,327,0,0,63750
S,11090,44360020,334,0,0,51692
S,11091,44364024,341,0,0,55386
S,11092,44368020,340,0,0,10289
S,11093,44372020,332,0,0,14472
S,11094,44376020,328,0,0,14191
S,11095,44380020,336,0,0,2006
S,11096,44384024,344,0,0,6077
S,11097,44388024,342,0,0,26130
S,11098,44392020,332,0,0,30439
S,11099,44396020,328,0,0,17730
S,11100,44400020,336,0,0,21821
S,11101,44404020,344,0,0,42388
S,11102,44408020,342,0,0,46201
S,11103,44412020,331,0,0,33989
S,11104,44416020,326,0,0,38039
S,11105,44420020,334,0,0,58174
S,11106,44424020,343,0,0,62404
S,11107,44428020,342,0,0,49764
S,11108,44432020,333,0,0,53784
S,11109,44436020,330,0,0,8893
S,11110,44440020,337,0,0,12613
S,11111,44444020,345,0,0,492
S,11112,44448020,342,0,0,4492
S,11113,44452020,332,0,0,24631
S,11114,44456020,328,0,0,28880
S,11115,44460020,335,0,0,20342
S,11116,44464020,343,0,0,24329
S,11117,44468020,342,0,0,44969
S,11118,44472020,334,0,0,48722
S,11119,44476020,330,0,0,36599
S,11120,44480020,337,0,0,40595
S,11121,44484020,344,0,0,60731
S,11122,44488020,342,0,0,64982
S,11123,44492024,334,0,0,52323
S,11124,44496020,331,0,0,56333
S,11125,44500020,342,0,0,11440
S,11126,44504020,353,0,0,15204
S,11127,44508020,353,0,0,3013
S,11128,44512020,343,0,0,7068
S,11129,44516020,338,0,0,27192
S,11130,44520020,347,0,0,31442
S,11131,44524020,359,0,0,18767
S,11132,44528020,360,0,0,22823
S,11133,44532020,352,0,0,43406
S,11134,44536020,347,0,0,47190
S,11135,44540020,353,0,0,35021
S,11136,44544020,357,0,0,38998
S,11137,44548020,352,0,0,38898
S,11138,44552020,340,0,0,59173
S,11139,44556020,333,0,0,63133
S,11140,44560020,337,0,0,50918
S,11141,44564020,343,0,0,54849
S,11142,44568020,340,0,0,9646
S,11143,44572020,329,0,0,13586
S,11144,44576020,323,0,0,1399
S,11145,44580020,331,0,0,5342
S,11146,44584020,339,0,0,25637
S,11147,44588020,338,0,0,29573
S,11148,44592020,328,0,0,17400
S,11149,44596020,322,0,0,21331
S,11150,44600020,329,0,0,41659
S,11151,44604020,337,0,0,45570
S,11152,44608020,336,0,0,33404
S,11153,44612024,328,0,0,37321
S,11154,44616020,325,0,0,57643
S,11155,44620020,332,0,0,61571
S,11156,44624020,339,0,0,49403
S,11157,44628020,334,0,0,53319
S,11158,44632020,319,0,0,12244
S,11159,44636020,316,0,0,16246
S,11160,44640020,338,0,0,3959
S,11161,44644020,383,0,0,7931
S,11162,44648020,437,0,0,28370
S,11163,44652020,490,0,0,32044
S,11164,44656024,539,0,0,20150
S,11165,44660020,563,0,0,24115
S,11166,44664020,531,0,0,45040
S,11167,44668020,454,0,0,48260
S,11168,44672020,380,0,0,35937
S,11169,44676020,332,0,0,39920
S,11170,44680020,318,0,0,60257
S,11171,44684020,323,0,0,64189
S,11172,44688020,324,0,0,51933
S,11173,44692020,316,0,0,55812
S,11174,44696020,309,0,0,10733
S,11175,44700020,314,0,0,14659
S,11176,44704020,322,0,0,2388
S,11177,44708020,322,0,0,6389
S,11178,44712020,312,0,0,26732
S,11179,44716020,307,0,0,26566
S,11180,44720020,315,0,0,30633
S,11181,44724020,325,0,0,18294
S,11182,44728020,326,0,0,22166
S,11183,44732020,317,0,0,42572
S,11184,44736020,312,0,0,46646
S,11185,44740020,320,0,0,34287
S,11186,44744020,331,0,0,38151
S,11187,44748020,331,0,0,58534
S,11188,44752020,321,0,0,62667
S,11189,44756020,316,0,0,50199
S,11190,44760020,324,0,0,54156
S,11191,44764020,334,0,0,8998
S,11192,44768020,335,0,0,13128
S,11193,44772020,325,0,0,739
S,11194,44776020,320,0,0,4613
S,11195,44780024,328,0,0,24992
S,11196,44784020,339,0,0,29136
S,11197,44788020,339,0,0,16753
S,11198,44792020,330,0,0,20619
S,11199,44796020,324,0,0,40996
S,11200,44800020,331,0,0,45108
S,11201,44804020,342,0,0,36744
S,11202,44808024,341,0,0,40804
S,11203,44812020,331,0,0,61143
S,11204,44816020,326,0,0,65213
S,11205,44820020,334,0,0,52756
S,11206,44824020,345,0,0,56800
S,11207,44828020,346,0,0,11589
S,11208,44832024,337,0,0,15661
S,11209,44836020,332,0,0,3229
S,11210,44840020,341,0,0,7271
S,11211,44844020,352,0,0,27635
S,11212,44848024,354,0,0,31642
S,11213,44852020,346,0,0,19215
S,11214,44856020,341,0,0,23267
S,11215,44860024,350,0,0,43589
S,11216,44864020,361,0,0,47617
S,11217,44868024,363,0,0,35246
S,11218,44872024,354,0,0,39236
S,11219,44876024,349,0,0,59610
S,11220,44880020,358,0,0,63626
S,11221,44884020,369,0,0,51260
S,11222,44888024,369,0,0,51155
S,11223,44892020,360,0,0,55143
S,11224,44896020,354,0,0,9987
S,11225,44900020,362,0,0,13994
S,11226,44904020,372,0,0,1623
S,11227,44908020,371,0,0,5617
S,11228,44912020,360,0,0,25997
S,11229,44916024,351,0,0,29975
S,11230,44920020,356,0,0,17603
S,11231,44924020,362,0,0,21612
S,11232,44928020,358,0,0,42047
S,11233,44932020,344,0,0,45984
S,11234,44936020,333,0,0,33622
S,11235,44940020,337,0,0,37611
S,11236,44944020,343,0,0,57994
S,11237,44948020,339,0,0,61999
S,11238,44952020,326,0,0,49625
S,11239,44956020,317,0,0,53507
S,11240,44960020,322,0,0,8464
S,11241,44964020,330,0,0,12473
S,11242,44968020,329,0,0,89
S,11243,44972024,319,0,0,8066
S,11244,44976024,311,0,0,28653
S,11245,44980020,318,0,0,32585
S,11246,44984020,329,0,0,20189
S,11247,44988020,328,0,0,24189
S,11248,44992020,318,0,0,44660
S,11249,44996020,311,0,0,48604
S,11250,45000020,320,0,0,36168
S,11251,45004020,331,0,0,40162
S,11252,45008020,330,0,0,60548
S,11253,45012020,319,0,0,64592
S,11254,45016020,313,0,0,52149
S,11255,45020020,321,0,0,56172
S,11256,45024020,330,0,0,11017
S,11257,45028020,330,0,0,15016
S,11258,45032020,320,0,0,2625
S,11259,45036020,314,0,0,6554
S,11260,45040020,321,0,0,27014
S,11261,45044020,331,0,0,31021
S,11262,45048020,332,0,0,18633
S,11263,45052020,322,0,0,22630
S,11264,45056020,316,0,0,44935
S,11265,45060020,323,0,0,41049
S,11266,45064020,333,0,0,45236
S,11267,45068020,334,0,0,33046
S,11268,45072024,323,0,0,37232
S,11269,45076020,317,0,0,57763
S,11270,45080020,324,0,0,62009
S,11271,45084020,334,0,0,49810
S,11272,45088020,334,0,0,54013
S,11273,45092024,324,0,0,9029
S,11274,45096024,317,0,0,13279
S,11275,45100020,324,0,0,1035
S,11276,45104020,332,0,0,5220
S,11277,45108020,332,0,0,25797
S,11278,45112020,322,0,0,29992
S,11279,45116020,315,0,0,17904
S,11280,45120020,321,0,0,22005
S,11281,45124020,331,0,0,42590
S,11282,45128024,331,0,0,46769
S,11283,45132020,320,0,0,34583
S,11284,45136024,314,0,0,38662
S,11285,45140020,320,0,0,59345
S,11286,45144020,329,0,0,63547
S,11287,45148020,328,0,0,51355
S,11288,45152024,318,0,0,55438
S,11289,45156020,312,0,0,10532
S,11290,45160020,320,0,0,14783
S,11291,45164020,330,0,0,2580
S,11292,45168020,330,0,0,6771
S,11293,45172020,320,0,0,27352
S,11294,45176024,314,0,0,31565
S,11295,45180020,321,0,0,19355
S,11296,45184020,331,0,0,23502
S,11297,45188024,331,0,0,44131
S,11298,45192020,321,0,0,48262
S,11299,45196024,315,0,0,36177
S,11300,45200020,322,0,0,40259
S,11301,45204024,331,0,0,60903
S,11302,45208020,332,0,0,65039
S,11303,45212020,322,0,0,52896
S,11304,45216024,315,0,0,57018
S,11305,45220020,321,0,0,12142
S,11306,45224020,330,0,0,16262
S,11307,45228020,330,0,0,12327
S,11308,45232024,320,0,0,70
S,11309,45236024,314,0,0,4253
S,11310,45240020,320,0,0,24840
S,11311,45244020,329,0,0,29088
S,11312,45248020,329,0,0,16863
S,11313,45252020,319,0,0,21000
S,11314,45256020,311,0,0,41699
S,11315,45260020,317,0,0,45896
S,11316,45264020,326,0,0,33620
S,11317,45268020,325,0,0,37878
S,11318,45272020,315,0,0,58475
S,11319,45276020,308,0,0,62661
S,11320,45280020,315,0,0,50341
S,11321,45284020,324,0,0,54651
S,11322,45288024,325,0,0,9620
S,11323,45292020,316,0,0,13888
S,11324,45296020,312,0,0,1571
S,11325,45300024,320,0,0,5878
S,11326,45304020,331,0,0,26386
S,11327,45308020,329,0,0,30641
S,11328,45312020,318,0,0,18393
S,11329,45316020,311,0,0,22641
S,11330,45320020,319,0,0,43162
S,11331,45324020,331,0,0,47439
S,11332,45328020,329,0,0,35114
S,11333,45332020,316,0,0,39422
S,11334,45336020,306,0,0,59923
S,11335,45340020,312,0,0,64184
S,11336,45344020,321,0,0,51886
S,11337,45348020,318,0,0,56176
S,11338,45352020,303,0,0,11141
S,11339,45356020,292,0,0,15407
S,11340,45360020,297,0,0,3141
S,11341,45364024,306,0,0,7411
S,11342,45368024,305,0,0,27923
S,11343,45372020,294,0,0,32169
S,11344,45376020,286,0,0,19950
S,11345,45380020,292,0,0,24181
S,11346,45384020,302,0,0,44700
S,11347,45388020,302,0,0,48957
S,11348,45392020,291,0,0,36695
S,11349,45396020,283,0,0,40910
S,11350,45400020,291,0,0,36885
S,11351,45404020,302,0,0,57529
S,11352,45408020,303,0,0,61655
S,11353,45412020,292,0,0,49533
S,11354,45416020,283,0,0,53665
S,11355,45420020,289,0,0,8763
S,11356,45424020,297,0,0,12884
S,11357,45428020,300,0,0,752
S,11358,45432020,304,0,0,4879
S,11359,45436020,329,0,0,25559
S,11360,45440020,389,0,0,29508
S,11361,45444024,464,0,0,17596
S,11362,45448020,524,0,0,22415
S,11363,45452020,537,0,0,42555
S,11364,45456020,492,0,0,46505
S,11365,45460020,426,0,0,34126
S,11366,45464020,377,0,0,38526
S,11367,45468020,336,0,0,59126
S,11368,45472020,303,0,0,63206
S,11369,45476020,288,0,0,51016
S,11370,45480020,298,0,0,55201
S,11371,45484020,312,0,0,10257
S,11372,45488020,312,0,0,14454
S,11373,45492024,300,0,0,2255
S,11374,45496020,291,0,0,6447
S,11375,45500020,3S,11376,45504020,314,0,0,31208
S,11377,45508020,318,0,0,19021
S,11378,45512020,307,0,0,23203
S,11379,45516020,299,0,0,43802
S,11380,45520020,309,0,0,47971
S,11381,45524020,325,0,0,35762
S,11382,45528020,328,0,0,40028
S,11383,45532020,317,0,0,60552
S,11384,45536020,308,0,0,64750
S,11385,45540020,318,0,0,52549
S,11386,45544020,333,0,0,56789
S,11387,45548020,336,0,0,11880
S,11388,45552020,324,0,0,15899
S,11389,45556020,314,0,0,3780
S,11390,45560020,323,0,0,8030
S,11391,45564020,339,0,0,28655
S,11392,45568020,342,0,0,32629
S,11393,45572020,332,0,0,28878
S,11394,45576020,324,0,0,16421
S,11395,45580020,333,0,0,20877
S,11396,45584020,347,0,0,41468
S,11397,45588020,348,0,0,45402
S,11398,45592020,337,0,0,33460
S,11399,45596020,328,0,0,37388
S,11400,45600020,338,0,0,57977
S,11401,45604024,352,0,0,62438
S,11402,45608020,355,0,0,49930
S,11403,45612020,343,0,0,54431
S,11404,45616020,335,0,0,9455
S,11405,45620020,345,0,0,13400
S,11406,45624020,360,0,0,1418
S,11407,45628020,364,0,0,5423
S,11408,45632020,352,0,0,25948
S,11409,45636020,344,0,0,30405
S,11410,45640020,354,0,0,17948
S,11411,45644024,370,0,0,22433
S,11412,45648020,373,0,0,42957
S,11413,45652020,361,0,0,46960
S,11414,45656020,352,0,0,34970
S,11415,45660020,361,0,0,38962
S,11416,45664020,376,0,0,59468
S,11417,45668020,379,0,0,63982
S,11418,45672024,368,0,0,51466
S,11419,45676020,359,0,0,55984
S,11420,45680020,368,0,0,10945
S,11421,45684020,384,0,0,14992
S,11422,45688020,386,0,0,2929
S,11423,45692020,373,0,0,6951
S,11424,45696020,362,0,0,27495
S,11425,45700020,370,0,0,31966
S,11426,45704020,385,0,0,19662
S,11427,45708020,385,0,0,23919
S,11428,45712020,369,0,0,44536
S,11429,45716020,355,0,0,48459
S,11430,45720020,358,0,0,36525
S,11431,45724020,368,0,0,40474
S,11432,45728020,366,0,0,61035
S,11433,45732020,350,0,0,65530
S,11434,45736020,336,0,0,53015
S,11435,45740020,341,0,0,49331
S,11436,45744020,351,0,0,53470
S,11437,45748020,350,0,0,8317
S,11438,45752020,335,0,0,12687
S,11439,45756020,324,0,0,293
S,11440,45760020,331,0,0,4437
S,11441,45764020,343,0,0,25320
S,11442,45768020,344,0,0,29188
S,11443,45772020,330,0,0,17335
S,11444,45776020,320,0,0,21466
S,11445,45780020,328,0,0,41843
S,11446,45784020,341,0,0,46221
S,11447,45788020,344,0,0,33825
S,11448,45792020,332,0,0,37978
S,11449,45796020,322,0,0,58869
S,11450,45800020,329,0,0,62749
S,11451,45804020,342,0,0,50851
S,11452,45808020,344,0,0,54986
S,11453,45812020,333,0,0,9855
S,11454,45816020,324,0,0,14229
S,11455,45820020,332,0,0,1852
S,11456,45824020,345,0,0,5942
S,11457,45828020,346,0,0,26772
S,11458,45832020,335,0,0,30818
S,11459,45836020,326,0,0,18890
S,11460,45840020,334,0,0,22949
S,11461,45844020,347,0,0,43281
S,11462,45848020,349,0,0,47860
S,11463,45852020,337,0,0,35417
S,11464,45856020,326,0,0,39457
S,11465,45860020,333,0,0,60299
S,11466,45864024,346,0,0,64371
S,11467,45868020,349,0,0,52441
S,11468,45872020,337,0,0,56498
S,11469,45876020,328,0,0,11277
S,11470,45880020,335,0,0,15849
S,11471,45884020,347,0,0,3420
S,11472,45888020,349,0,0,7461
S,11473,45892020,337,0,0,28296
S,11474,45896020,327,0,0,32381
S,11475,45900024,334,0,0,20441
S,11476,45904020,346,0,0,24486
S,11477,45908020,347,0,0,44806
S,11478,45912020,336,0,0,41198
S,11479,45916020,326,0,0,45145
S,11480,45920020,333,0,0,32829
S,11481,45924024,344,0,0,37253
S,11482,45928020,341,0,0,57703
S,11483,45932020,322,0,0,62161
S,11484,45936020,307,0,0,49863
S,11485,45940020,305,0,0,53860
S,11486,45944020,301,0,0,9114
S,11487,45948020,291,0,0,13109
S,11488,45952020,286,0,0,855
S,11489,45956020,296,0,0,5312
S,11490,45960020,309,0,0,25662
S,11491,45964024,307,0,0,30101
S,11492,45968020,297,0,0,17892
S,11493,45972020,297,0,0,21829
S,11494,45976020,313,0,0,42678
S,11495,45980020,322,0,0,46700
S,11496,45984020,313,0,0,34424
S,11497,45988020,302,0,0,38862
S,11498,45992020,308,0,0,59191
S,11499,45996020,326,0,0,63716
S,11500,46000020,333,0,0,51336
S,11501,46004020,320,0,0,55332
S,11502,46008020,309,0,0,10673
S,11503,46012020,318,0,0,14619
S,11504,46016020,336,0,0,2314
S,11505,46020020,344,0,0,6819
S,11506,46024024,332,0,0,27224
S,11507,46028020,319,0,0,31622
S,11508,46032024,327,0,0,19349
S,11509,46036020,345,0,0,23334
S,11510,46040020,350,0,0,44226
S,11511,46044020,336,0,0,48237
S,11512,46048020,325,0,0,35863
S,11513,46052020,333,0,0,40382
S,11514,46056020,351,0,0,60751
S,11515,46060020,354,0,0,65235
S,11516,46064020,341,0,0,52867
S,11517,46068020,330,0,0,56893
S,11518,46072020,338,0,0,12231
S,11519,46076020,355,0,0,16215
S,11520,46080024,357,0,0,3778
S,11521,46084020,343,0,0,349
S,11522,46088024,332,0,0,4521
S,11523,46092020,340,0,0,24604
S,11524,46096024,357,0,0,28742
S,11525,46100020,361,0,0,16615
S,11526,46104024,346,0,0,21307
S,11527,46108020,335,0,0,41859
S,11528,46112024,343,0,0,46072
S,11529,46116020,360,0,0,33386
S,11530,46120020,363,0,0,37514
S,11531,46124020,349,0,0,58653
S,11532,46128020,338,0,0,62837
S,11533,46132024,347,0,0,50641
S,11534,46136020,365,0,0,54280
S,11535,46140020,368,0,0,9419
S,11536,46144024,355,0,0,13483
S,11537,46148020,346,0,0,1855
S,11538,46152020,357,0,0,6115
S,11539,46156020,376,0,0,26207
S,11540,46160020,378,0,0,30266
S,11541,46164020,363,0,0,18058
S,11542,46168020,353,0,0,22883
S,11543,46172024,363,0,0,43460
S,11544,46176020,381,0,0,47537
S,11545,46180020,384,0,0,35053
S,11546,46184020,367,0,0,39137
S,11547,46188020,353,0,0,60238
S,11548,46192020,359,0,0,64303
S,11549,46196020,376,0,0,52113
S,11550,46200020,376,0,0,55922
S,11551,46204020,358,0,0,10956
S,11552,46208020,344,0,0,15021
S,11553,46212020,349,0,0,3337
S,11554,46216020,364,0,0,7643
S,11555,46220020,366,0,0,27768
S,11556,46224020,350,0,0,31791
S,11557,46228020,339,0,0,19587
S,11558,46232020,346,0,0,24425
S,11559,46236020,363,0,0,45049
S,11560,46240020,365,0,0,49040
S,11561,46244024,350,0,0,36366
S,11562,46248020,337,0,0,40686
S,11563,46252020,347,0,0,37189
S,11564,46256020,364,0,0,57621
S,11565,46260024,368,0,0,61860
S,11566,46264020,352,0,0,49243
S,11567,46268020,339,0,0,53449
S,11568,46272020,343,0,0,8369
S,11569,46276020,357,0,0,13090
S,11570,46280020,359,0,0,963
S,11571,46284020,355,0,0,4710
S,11572,46288020,368,0,0,25106
S,11573,46292020,421,0,0,29286
S,11574,46296020,498,0,0,17874
S,11575,46300020,562,0,0,22195
S,11576,46304020,582,0,0,42664
S,11577,46308020,548,0,0,46955
S,11578,46312020,484,0,0,33864
S,11579,46316020,432,0,0,38845
S,11580,46320020,388,0,0,59374
S,11581,46324020,346,0,0,63377
S,11582,46328020,325,0,0,50797
S,11583,46332020,333,0,0,54980
S,11584,46336024,348,0,0,9927
S,11585,46340020,350,0,0,14696
S,11586,46344020,333,0,0,2456
S,11587,46348020,322,0,0,6198
S,11588,46352020,329,0,0,26714
S,11589,46356020,345,0,0,30955
S,11590,46360020,347,0,0,19210
S,11591,46364020,332,0,0,23484
S,11592,46368020,321,0,0,43998
S,11593,46372020,331,0,0,47733
S,11594,46376020,349,0,0,35456
S,11595,46380020,352,0,0,40220
S,11596,46384020,337,0,0,60746
S,11597,46388020,327,0,0,65021
S,11598,46392020,335,0,0,52246
S,11599,46396020,352,0,0,56472
S,11600,46400020,355,0,0,11491
S,11601,46404020,341,0,0,16244
S,11602,46408020,331,0,0,3977
S,11603,46412020,340,0,0,7735
S,11604,46416020,356,0,0,28256
S,11605,46420020,359,0,0,32450
S,11606,46424020,344,0,0,28958
S,11607,46428024,333,0,0,16806
S,11608,46432024,341,0,0,20945
S,11609,46436024,358,0,0,41027
S,11610,46440024,361,0,0,45231
S,11611,46444020,347,0,0,33584
S,11612,46448020,337,0,0,37725
S,11613,46452020,347,0,0,58358
S,11614,46456020,365,0,0,61987
S,11615,46460020,367,0,0,49792
S,11616,46464020,353,0,0,53969
S,11617,46468024,343,0,0,9547
S,11618,46472020,352,0,0,13715
S,11619,46476024,370,0,0,1068
S,11620,46480020,374,0,0,5187
S,11621,46484020,360,0,0,25852
S,11622,46488020,351,0,0,30504
S,11623,46492020,360,0,0,18366
S,11624,46496020,378,0,0,22467
S,11625,46500024,382,0,0,42602
S,11626,46504020,367,0,0,46740
S,11627,46508020,356,0,0,35134
S,11628,46512020,366,0,0,39251
S,11629,46516020,384,0,0,59676
S,11630,46520020,388,0,0,63739
S,11631,46524020,375,0,0,51369
S,11632,46528020,365,0,0,55500
S,11633,46532020,374,0,0,11125
S,11634,46536020,393,0,0,15209
S,11635,46540020,396,0,0,2765
S,11636,46544024,381,0,0,6743
S,11637,46548020,370,0,0,27381
S,11638,46552020,378,0,0,32030
S,11639,46556020,393,0,0,19788
S,11640,46560020,395,0,0,23841
S,11641,46564020,377,0,0,44146
S,11642,46568020,362,0,0,48258
S,11643,46572020,366,0,0,36647
S,11644,46576020,379,0,0,40789
S,11645,46580020,377,0,0,61430
S,11646,46584020,358,0,0,65034
S,11647,46588020,342,0,0,52891
S,11648,46592020,345,0,0,56843
S,11649,46596020,358,0,0,53653
S,11650,46600020,358,0,0,8567
S,11651,46604020,340,0,0,12516
S,11652,46608020,326,0,0,145
S,11653,46612020,330,0,0,4156
S,11654,46616024,346,0,0,25539
S,11655,46620020,348,0,0,29544
S,11656,46624020,332,0,0,17175
S,11657,46628024,318,0,0,21192
S,11658,46632020,324,0,0,41565
S,11659,46636020,340,0,0,46572
S,11660,46640020,342,0,0,34185
S,11661,46644020,325,0,0,38203
S,11662,46648020,314,0,0,58535
S,11663,46652020,320,0,0,62588
S,11664,46656020,335,0,0,50188
S,11665,46660020,337,0,0,55219
S,11666,46664020,321,0,0,10063
S,11667,46668024,309,0,0,13974
S,11668,46672020,317,0,0,1781
S,11669,46676020,333,0,0,5668
S,11670,46680020,336,0,0,27098
S,11671,46684020,321,0,0,31082
S,11672,46688020,309,0,0,18801
S,11673,46692020,314,0,0,22751
S,11674,46696020,330,0,0,43084
S,11675,46700020,333,0,0,48106
S,11676,46704020,318,0,0,35838
S,11677,46708020,306,0,0,39763
S,11678,46712020,313,0,0,60091
S,11679,46716024,329,0,0,64102
S,11680,46720020,332,0,0,51760
S,11681,46724020,317,0,0,56800
S,11682,46728020,306,0,0,11533
S,11683,46732020,313,0,0,15527
S,11684,46736020,330,0,0,3251
S,11685,46740020,335,0,0,7191
S,11686,46744024,320,0,0,28663
S,11687,46748020,307,0,0,32553
S,11688,46752020,313,0,0,20300
S,11689,46756020,329,0,0,24221
S,11690,46760020,333,0,0,44666
S,11691,46764020,318,0,0,41384
S,11692,46768020,305,0,0,45504
S,11693,46772020,310,0,0,33126
S,11694,46776020,327,0,0,37108
S,11695,46780020,329,0,0,57435
S,11696,46784020,314,0,0,61527
S,11697,46788020,299,0,0,50151
S,11698,46792020,306,0,0,54045
S,11699,46796020,322,0,0,8911
S,11700,46800020,326,0,0,12972
S,11701,46804024,311,0,0,624
S,11702,46808020,299,0,0,5507
S,11703,46812024,306,0,0,25911
S,11704,46816020,323,0,0,29989
S,11705,46820020,327,0,0,17536
S,11706,46824020,313,0,0,21533
S,11707,46828020,302,0,0,42923
S,11708,46832020,311,0,0,47061
S,11709,46836020,329,0,0,34570
S,11710,46840020,332,0,0,38636
S,11711,46844020,318,0,0,58943
S,11712,46848020,307,0,0,63021
S,11713,46852020,317,0,0,51586
S,11714,46856020,333,0,0,55569
S,11715,46860020,337,0,0,10413
S,11716,46864024,323,0,0,14548
S,11717,46868024,313,0,0,2063
S,11718,46872024,323,0,0,7062
S,11719,46876024,340,0,0,27424
S,11720,46880020,344,0,0,31567
S,11721,46884020,329,0,0,19199
S,11722,46888020,318,0,0,23147
S,11723,46892020,327,0,0,44467
S,11724,46896020,346,0,0,48585
S,11725,46900020,350,0,0,36204
S,11726,46904020,335,0,0,40094
S,11727,46908020,324,0,0,60468
S,11728,46912020,332,0,0,64579
S,11729,46916020,350,0,0,53232
S,11730,46920020,353,0,0,57132
S,11731,46924020,339,0,0,11960
S,11732,46928020,327,0,0,16075
S,11733,46932020,334,0,0,3683
S,11734,46936024,349,0,0,415
S,11735,46940020,353,0,0,4366
S,11736,46944020,339,0,0,24915
S,11737,46948020,328,0,0,28905
S,11738,46952020,336,0,0,16402
S,11739,46956024,354,0,0,21389
S,11740,46960020,357,0,0,41953
S,11741,46964020,343,0,0,45938
S,11742,46968020,331,0,0,33421
S,11743,46972020,338,0,0,37429
S,11744,46976024,353,0,0,57941
S,11745,46980020,356,0,0,62973
S,11746,46984020,341,0,0,50479
S,11747,46988020,331,0,0,54416
S,11748,46992020,338,0,0,9455
S,11749,46996020,355,0,0,13439
S,11750,47000020,358,0,0,1945
S,11751,47004020,345,0,0,5895
S,11752,47008020,334,0,0,26495
S,11753,47012020,343,0,0,30407
S,11754,47016020,357,0,0,17942
S,11755,47020020,357,0,0,22967
S,11756,47024020,337,0,0,43492
S,11757,47028020,323,0,0,47447
S,11758,47032020,331,0,0,35004
S,11759,47036020,349,0,0,38923
S,11760,47040020,352,0,0,59465
S,11761,47044020,335,0,0,64455
S,11762,47048020,322,0,0,52009
S,11763,47052024,328,0,0,55950
S,11764,47056020,343,0,0,11001
S,11765,47060020,344,0,0,14935
S,11766,47064020,327,0,0,3499
S,11767,47068024,314,0,0,7547
S,11768,47072020,320,0,0,28002
S,11769,47076020,336,0,0,31955
S,11770,47080020,338,0,0,19506
S,11771,47084020,323,0,0,24450
S,11772,47088020,312,0,0,44958
S,11773,47092020,321,0,0,48966
S,11774,47096020,339,0,0,36535
S,11775,47100024,342,0,0,40479
S,11776,47104020,327,0,0,60829
S,11777,47108024,317,0,0,57930
S,11778,47112020,327,0,0,62175
S,11779,47116020,344,0,0,50017
S,11780,47120020,346,0,0,54020
S,11781,47124020,331,0,0,9141
S,11782,47128020,319,0,0,12322
S,11783,47132020,326,0,0,250
S,11784,47136020,339,0,0,4224
S,11785,47140020,339,0,0,24865
S,11786,47144020,332,0,0,29149
S,11787,47148020,347,0,0,18027
S,11788,47152020,402,0,0,22213
S,11789,47156020,479,0,0,42537
S,11790,47160020,540,0,0,46089
S,11791,47164020,562,0,0,33926
S,11792,47168020,534,0,0,38109
S,11793,47172020,477,0,0,58551
S,11794,47176024,423,0,0,62498
S,11795,47180020,376,0,0,50512
S,11796,47184024,330,0,0,54537
S,11797,47188020,309,0,0,9668
S,11798,47192020,318,0,0,14892
S,11799,47196020,338,0,0,2785
S,11800,47200020,341,0,0,6793
S,11801,47204020,324,0,0,27449
S,11802,47208020,313,0,0,31655
S,11803,47212020,321,0,0,18558
S,11804,47216020,338,0,0,22538
S,11805,47220020,340,0,0,43181
S,11806,47224020,324,0,0,47454
S,11807,47228020,313,0,0,35202
S,11808,47232020,323,0,0,39335
S,11809,47236024,342,0,0,60959
S,11810,47240020,345,0,0,65279
S,11811,47244020,330,0,0,53069
S,11812,47248020,319,0,0,57183
S,11813,47252020,328,0,0,12168
S,11814,47256020,345,0,0,15482
S,11815,47260020,346,0,0,3288
S,11816,47264020,331,0,0,7334
S,11817,47268024,321,0,0,27905
S,11818,47272020,331,0,0,32228
S,11819,47276020,349,0,0,29267
S,11820,47280020,351,0,0,16950
S,11821,47284020,336,0,0,21144
S,11822,47288020,327,0,0,41836
S,11823,47292020,335,0,0,46021
S,11824,47296020,351,0,0,33706
S,11825,47300020,354,0,0,36918
S,11826,47304020,340,0,0,57571
S,11827,47308020,330,0,0,61788
S,11828,47312020,340,0,0,49445
S,11829,47316020,356,0,0,53684
S,11830,47320020,357,0,0,9813
S,11831,47324020,342,0,0,14023
S,11832,47328020,332,0,0,1714
S,11833,47332020,344,0,0,5895
S,11834,47336020,364,0,0,26576
S,11835,47340020,367,0,0,29810
S,11836,47344020,351,0,0,17445
S,11837,47348020,340,0,0,21647
S,11838,47352020,350,0,0,42342
S,11839,47356020,367,0,0,46582
S,11840,47360020,372,0,0,34290
S,11841,47364020,359,0,0,39488
S,11842,47368020,350,0,0,60058
S,11843,47372020,361,0,0,64268
S,11844,47376024,379,0,0,52085
S,11845,47380020,382,0,0,56285
S,11846,47384020,368,0,0,10289
S,11847,47388020,359,0,0,14471
S,11848,47392020,370,0,0,2301
S,11849,47396020,386,0,0,6572
S,11850,47400024,388,0,0,26949
S,11851,47404020,372,0,0,32280
S,11852,47408020,362,0,0,20065
S,11853,47412020,372,0,0,24286
S,11854,47416020,389,0,0,45004
S,11855,47420020,389,0,0,49005
S,11856,47424020,371,0,0,36836
S,11857,47428020,357,0,0,40019
S,11858,47432020,362,0,0,60607
S,11859,47436020,375,0,0,64771
S,11860,47440020,372,0,0,52583
S,11861,47444020,351,0,0,56813
S,11862,47448020,337,0,0,53760
S,11863,47452020,343,0,0,8864
S,11864,47456020,356,0,0,13052
S,11865,47460024,353,0,0,852
S,11866,47464020,335,0,0,5013
S,11867,47468024,321,0,0,24630
S,11868,47472020,328,0,0,28756
S,11869,47476020,344,0,0,16613
S,11870,47480020,344,0,0,20742
S,11871,47484020,326,0,0,41401
S,11872,47488020,315,0,0,45467
S,11873,47492020,325,0,0,34372
S,11874,47496020,341,0,0,38583
S,11875,47500020,341,0,0,59158
S,11876,47504020,325,0,0,63329
S,11877,47508020,314,0,0,51135
S,11878,47512020,324,0,0,54306
S,11879,47516020,341,0,0,9363
S,11880,47520024,343,0,0,13554
S,11881,47524020,326,0,0,1358
S,11882,47528020,314,0,0,5585
S,11883,47532024,324,0,0,27138
S,11884,47536020,341,0,0,31352
9156
S,11886,47544020,328,0,0,23335
S,11887,47548020,316,0,0,44018
S,11888,47552020,326,0,0,48119
S,11889,47556020,343,0,0,34887
S,11890,47560020,345,0,0,39082
S,11891,47564020,329,0,0,59675
S,11892,47568020,319,0,0,63754
S,11893,47572024,327,0,0,51679
S,11894,47576020,344,0,0,56879
S,11895,47580020,345,0,0,11916
S,11896,47584020,329,0,0,16115
S,11897,47588024,319,0,0,3880
S,11898,47592020,329,0,0,8113
S,11899,47596024,346,0,0,27663
S,11900,47600020,346,0,0,31844
S,11901,47604020,330,0,0,19669
S,11902,47608020,320,0,0,23868
S,11903,47612020,330,0,0,44439
S,11904,47616024,347,0,0,48405
S,11905,47620024,347,0,0,45748
S,11906,47624020,331,0,0,33355
S,11907,47628020,321,0,0,37856
S,11908,47632020,330,0,0,58252
S,11909,47636020,346,0,0,62269
S,11910,47640020,347,0,0,49375
S,11911,47644020,331,0,0,53358
S,11912,47648020,319,0,0,8308
S,11913,47652020,329,0,0,12707
S,11914,47656020,346,0,0,339
S,11915,47660020,350,0,0,5878
S,11916,47664020,333,0,0,26242
S,11917,47668020,321,0,0,30255
S,11918,47672020,330,0,0,18375
S,11919,47676020,346,0,0,22390
S,11920,47680020,346,0,0,42761
S,11921,47684024,331,0,0,46261
S,11922,47688020,321,0,0,33872
S,11923,47692024,331,0,0,38391
S,11924,47696020,347,0,0,58764
S,11925,47700020,349,0,0,62763
S,11926,47704020,332,0,0,51929
S,11927,47708020,322,0,0,55926
S,11928,47712020,331,0,0,10783
S,11929,47716020,349,0,0,15272
S,11930,47720020,350,0,0,2888
S,11931,47724020,335,0,0,6392
S,11932,47728020,324,0,0,26772
S,11933,47732020,333,0,0,30780
S,11934,47736020,349,0,0,18895
S,11935,47740020,350,0,0,22893
S,11936,47744024,335,0,0,43311
S,11937,47748020,324,0,0,48777
S,11938,47752020,333,0,0,36451
S,11939,47756020,351,0,0,40912
S,11940,47760024,351,0,0,61371
S,11941,47764020,335,0,0,65286
S,11942,47768020,323,0,0,52457
S,11943,47772020,333,0,0,56390
S,11944,47776020,348,0,0,11321
S,11945,47780020,350,0,0,15770
S,11946,47784020,335,0,0,3432
S,11947,47788020,325,0,0,707
S,11948,47792020,333,0,0,4780
S,11949,47796020,349,0,0,25117
S,11950,47800020,350,0,0,29693
S,11951,47804020,335,0,0,17229
S,11952,47808020,324,0,0,21305
S,11953,47812020,335,0,0,41107
S,11954,47816020,353,0,0,45150
S,11955,47820020,359,0,0,33273
S,11956,47824024,344,0,0,37293
S,11957,47828020,335,0,0,57623
S,11958,47832020,344,0,0,63203
S,11959,47836020,362,0,0,50800
S,11960,47840024,364,0,0,54805
S,11961,47844020,349,0,0,10122
S,11962,47848020,340,0,0,14176
S,11963,47852020,351,0,0,1226
S,11964,47856020,365,0,0,5279
S,11965,47860020,364,0,0,25663
S,11966,47864020,344,0,0,30184
S,11967,47868020,332,0,0,17757
S,11968,47872024,340,0,0,21846
S,11969,47876024,354,0,0,43713
S,11970,47880020,352,0,0,47660
S,11971,47884020,333,0,0,35744
S,11972,47888020,321,0,0,39883
S,11973,47892020,329,0,0,60258
S,11974,47896020,343,0,0,63647
S,11975,47900020,344,0,0,51249
S,11976,47904020,328,0,0,55374
S,11977,47908020,318,0,0,10648
S,11978,47912020,326,0,0,14595
S,11979,47916020,343,0,0,3763
S,11980,47920020,345,0,0,7898
S,11981,47924020,329,0,0,28267
S,11982,47928020,318,0,0,32767
S,11983,47932020,327,0,0,20263
S,11984,47936020,343,0,0,24392
S,11985,47940020,343,0,0,44265
S,11986,47944020,325,0,0,48152
S,11987,47948020,310,0,0,36298
S,11988,47952020,319,0,0,40356
S,11989,47956020,344,0,0,60770
S,11990,47960024,373,0,0,58016
S,11991,47964020,404,0,0,62188
S,11992,47968020,455,0,0,49872
S,11993,47972020,524,0,0,53434
S,11994,47976020,577,0,0,8211
S,11995,47980020,559,0,0,13276
S,11996,47984020,472,0,0,76
S,11997,47988020,389,0,0,4272
S,11998,47992020,349,0,0,24971
S,11999,47996020,337,0,0,28966
S,12000,48000020,328,0,0,16736
S,12001,48004020,313,0,0,22192
S,12002,48008020,303,0,0,42565
S,12003,48012020,311,0,0,47100
S,12004,48016020,325,0,0,34793
S,12005,48020024,325,0,0,38724
S,12006,48024024,308,0,0,58582
S,12007,48028020,298,0,0,62565
S,12008,48032020,308,0,0,50196
S,12009,48036020,326,0,0,54727
S,12010,48040020,328,0,0,9515
S,12011,48044020,312,0,0,15098
S,12012,48048020,301,0,0,2696
S,12013,48052020,311,0,0,6707
S,12014,48056024,328,0,0,27555
S,12015,48060020,330,0,0,31500
S,12016,48064020,314,0,0,19203
S,12017,48068024,305,0,0,22693
S,12018,48072020,315,0,0,43072
S,12019,48076020,332,0,0,47510
S,12020,48080020,334,0,0,35315
S,12021,48084020,319,0,0,39203
S,12022,48088020,309,0,0,61130
S,12023,48092020,320,0,0,65054
S,12024,48096020,337,0,0,52832
S,12025,48100024,338,0,0,57294
S,12026,48104020,322,0,0,12082
S,12027,48108024,312,0,0,15589
S,12028,48112020,323,0,0,3317
S,12029,48116024,340,0,0,7247
S,12030,48120024,343,0,0,28079
S,12031,48124020,327,0,0,32018
S,12032,48128020,317,0,0,19703
S,12033,48132024,326,0,0,17185
S,12034,48136024,344,0,0,21468
S,12035,48140024,346,0,0,41599
S,12036,48144020,332,0,0,45570
S,12037,48148020,323,0,0,33452
S,12038,48152020,334,0,0,37186
S,12039,48156020,352,0,0,57805
S,12040,48160020,355,0,0,61857
S,12041,48164020,341,0,0,49206
S,12042,48168020,332,0,0,53452
S,12043,48172020,343,0,0,10103
S,12044,48176020,362,0,0,14125
S,12045,48180020,365,0,0,1931
S,12046,48184020,350,0,0,5723
S,12047,48188020,340,0,0,26352
S,12048,48192020,351,0,0,30340
S,12049,48196020,368,0,0,17674
S,12050,48200024,371,0,0,21990
S,12051,48204020,356,0,0,42076
S,12052,48208020,347,0,0,46084
S,12053,48212020,357,0,0,33947
S,12054,48216020,375,0,0,39786
6,0,0,60356
S,12056,48224020,359,0,0,64436
S,12057,48228020,347,0,0,51753
S,12058,48232020,355,0,0,56050
S,12059,48236020,369,0,0,10622
S,12060,48240020,367,0,0,14599
S,12061,48244020,347,0,0,2450
S,12062,48248024,334,0,0,6248
S,12063,48252020,340,0,0,26847
S,12064,48256020,353,0,0,30901
S,12065,48260024,350,0,0,20263
S,12066,48264020,330,0,0,24540
S,12067,48268020,316,0,0,44555
S,12068,48272020,324,0,0,48660
S,12069,48276024,338,0,0,36527
S,12070,48280020,338,0,0,40256
S,12071,48284020,319,0,0,60812
S,12072,48288020,307,0,0,65007
S,12073,48292020,314,0,0,52295
S,12074,48296020,330,0,0,56532
S,12075,48300020,330,0,0,54133
S,12076,48304020,315,0,0,9058
S,12077,48308020,304,0,0,13256
S,12078,48312020,314,0,0,545
S,12079,48316024,329,0,0,4863
S,12080,48320020,330,0,0,25231
S,12081,48324020,314,0,0,29022
S,12082,48328020,305,0,0,16822
S,12083,48332020,314,0,0,20508
S,12084,48336020,331,0,0,40970
S,12085,48340024,332,0,0,45216
S,12086,48344020,317,0,0,34622
S,12087,48348020,307,0,0,38801
S,12088,48352020,317,0,0,59376
S,12089,48356020,334,0,0,63010
S,12090,48360020,335,0,0,50880
S,12091,48364020,319,0,0,54545
S,12092,48368020,310,0,0,9596
S,12093,48372020,320,0,0,13739
S,12094,48376020,337,0,0,1113
S,12095,48380020,337,0,0,5368
S,12096,48384020,322,0,0,25844
S,12097,48388020,312,0,0,31535
S,12098,48392020,322,0,0,19382
S,12099,48396024,339,0,0,23050
S,12100,48400020,340,0,0,43622
S,12101,48404020,323,0,0,47824
S,12102,48408020,312,0,0,35144
S,12103,48412020,322,0,0,39315
S,12104,48416020,338,0,0,59884
S,12105,48420020,338,0,0,63565
S,12106,48424020,322,0,0,51390
S,12107,48428020,311,0,0,57194
S,12108,48432020,321,0,0,12154
S,12109,48436020,337,0,0,16331
S,12110,48440024,337,0,0,3620
S,12111,48444024,321,0,0,7829
S,12112,48448020,311,0,0,28304
S,12113,48452020,320,0,0,32070
S,12114,48456024,336,0,0,19897
S,12115,48460020,337,0,0,23573
S,12116,48464020,321,0,0,44130
S,12117,48468020,311,0,0,48309
S,12118,48472020,321,0,0,45856
S,12119,48476020,338,0,0,33682
S,12120,48480020,337,0,0,37886
S,12121,48484020,321,0,0,57935
S,12122,48488020,310,0,0,62171
S,12123,48492020,320,0,0,49420
S,12124,48496020,336,0,0,53627
S,12125,48500020,337,0,0,8668
S,12126,48504020,321,0,0,12335
S,12127,48508020,311,0,0,248
S,12128,48512020,321,0,0,4305
S,12129,48516020,337,0,0,26464
S,12130,48520020,337,0,0,30595
S,12131,48524020,321,0,0,17970
S,12132,48528020,311,0,0,22051
S,12133,48532020,321,0,0,42740
S,12134,48536020,337,0,0,46343
S,12135,48540020,338,0,0,34213
S,12136,48544020,321,0,0,38361
S,12137,48548020,312,0,0,58369
S,12138,48552020,323,0,0,62617
S,12139,48556020,339,0,0,52008
S,12140,48560020,340,0,0,56136
S,12141,48564020,323,0,0,11263
S,12142,48568020,313,0,0,14950
S,12143,48572020,322,0,0,2748
S,12144,48576024,338,0,0,6879
S,12145,48580024,339,0,0,27007
S,12146,48584020,322,0,0,31105
S,12147,48588020,312,0,0,18522
S,12148,48592020,323,0,0,22598
S,12149,48596020,340,0,0,43248
S,12150,48600020,341,0,0,48914
S,12151,48604020,326,0,0,36768
S,12152,48608020,317,0,0,40884
S,12153,48612020,327,0,0,61039
S,12154,48616020,343,0,0,65180
S,12155,48620020,343,0,0,52541
S,12156,48624020,326,0,0,56651
S,12157,48628020,316,0,0,11667
S,12158,48632020,327,0,0,15371
S,12159,48636020,343,0,0,3258
S,12160,48640020,344,0,0,7210
S,12161,48644020,328,0,0,5019
S,12162,48648020,318,0,0,25358
S,12163,48652020,328,0,0,29401
S,12164,48656020,344,0,0,17070
S,12165,48660020,345,0,0,21006
S,12166,48664020,328,0,0,41468
S,12167,48668020,318,0,0,45355
S,12168,48672020,328,0,0,33074
S,12169,48676020,347,0,0,36992
S,12170,48680020,351,0,0,57447
S,12171,48684020,338,0,0,63435
S,12172,48688020,329,0,0,51127
S,12173,48692020,340,0,0,55051
S,12174,48696020,357,0,0,9944
S,12175,48700024,360,0,0,13944
S,12176,48704020,345,0,0,1594
S,12177,48708020,337,0,0,5523
S,12178,48712020,346,0,0,25979
S,12179,48716020,360,0,0,29928
S,12180,48720020,359,0,0,17536
S,12181,48724020,342,0,0,21520
S,12182,48728020,331,0,0,44014
S,12183,48732020,339,0,0,47959
S,12184,48736020,353,0,0,35594
S,12185,48740020,350,0,0,39572
S,12186,48744020,330,0,0,60003
S,12187,48748020,318,0,0,63926
S,12188,48752020,327,0,0,51624
S,12189,48756020,345,0,0,55575
S,12190,48760020,348,0,0,10494
S,12191,48764020,333,0,0,14414
S,12192,48768020,323,0,0,2079
S,12193,48772020,333,0,0,8112
S,12194,48776024,347,0,0,28489
S,12195,48780020,349,0,0,32482
S,12196,48784020,333,0,0,20117
S,12197,48788020,324,0,0,24125
S,12198,48792020,333,0,0,44503
S,12199,48796020,349,0,0,48486
S,12200,48800020,348,0,0,36104
S,12201,48804024,329,0,0,40112
S,12202,48808020,314,0,0,60460
S,12203,48812020,326,0,0,58353
S,12204,48816020,359,0,0,62391
S,12205,48820020,395,0,0,50170
S,12206,48824020,432,0,0,53794
S,12207,48828020,485,0,0,8919
S,12208,48832024,548,0,0,12645
S,12209,48836024,583,0,0,679
S,12210,48840020,540,0,0,4627
S,12211,48844020,449,0,0,24687
S,12212,48848020,375,0,0,28862
S,12213,48852020,344,0,0,16432
S,12214,48856020,341,0,0,22494
S,12215,48860020,338,0,0,42872
S,12216,48864020,323,0,0,46854
S,12217,48868020,311,0,0,34515
S,12218,48872020,319,0,0,38456
S,12219,48876020,334,0,0,58856
S,12220,48880020,335,0,0,62862
S,12221,48884020,318,0,0,50526
S,12222,48888020,308,0,0,54455
S,12223,48892020,317,0,0,9244
S,12224,48896020,335,0,0,13425
S,12225,48900024,337,0,0,3010
S,12226,48904024,324,0,0,6964
S,12227,48908020,314,0,0,27367
S,12228,48912020,325,0,0,31487
S,12229,48916020,343,0,0,19020
S,12230,48920020,346,0,0,22946
S,12231,48924020,330,0,0,43283
S,12232,48928020,321,0,0,47479
S,12233,48932020,331,0,0,35036
S,12234,48936020,349,0,0,38953
S,12235,48940020,350,0,0,61323
S,12236,48944020,336,0,0,65506
S,12237,48948020,326,0,0,53077
S,12238,48952020,338,0,0,56994
S,12239,48956020,355,0,0,11827
S,12240,48960020,358,0,0,15945
S,12241,48964020,342,0,0,3544
S,12242,48968020,333,0,0,7456
S,12243,48972020,341,0,0,27801
S,12244,48976020,361,0,0,31938
S,12245,48980020,362,0,0,19552
S,12246,48984020,349,0,0,17332
S,12247,48988020,339,0,0,21275
S,12248,48992020,351,0,0,41848
S,12249,48996020,367,0,0,45801
S,12250,49000020,371,0,0,33302
S,12251,49004020,355,0,0,37287
S,12252,49008020,347,0,0,57848
S,12253,49012020,356,0,0,61798
S,12254,49016020,375,0,0,49302
S,12255,49020024,376,0,0,53300
S,12256,49024024,363,0,0,8319
S,12257,49028024,354,0,0,14295
S,12258,49032020,367,0,0,1845
S,12259,49036020,383,0,0,5764
S,12260,49040020,386,0,0,26142
S,12261,49044020,370,0,0,30287
S,12262,49048020,360,0,0,17846
S,12263,49052020,370,0,0,21773
S,12264,49056020,388,0,0,42388
S,12265,49060020,389,0,0,46132
S,12266,49064020,373,0,0,33831
S,12267,49068020,363,0,0,39832
S,12268,49072020,374,0,0,60386
S,12269,49076020,391,0,0,64434
S,12270,49080020,393,0,0,51807
S,12271,49084020,375,0,0,55808
S,12272,49088024,364,0,0,10857
S,12273,49092020,372,0,0,14812
S,12274,49096020,386,0,0,2505
S,12275,49100020,383,0,0,6293
S,12276,49104020,360,0,0,26853
S,12277,49108020,344,0,0,30836
S,12278,49112020,350,0,0,20369
S,12279,49116020,362,0,0,24324
S,12280,49120020,358,0,0,44903
S,12281,49124020,337,0,0,48881
S,12282,49128020,323,0,0,36352
S,12283,49132020,331,0,0,40361
S,12284,49136020,344,0,0,60893
S,12285,49140020,342,0,0,64882
S,12286,49144020,323,0,0,52356
S,12287,49148024,311,0,0,56413
S,12288,49152020,321,0,0,13243
S,12289,49156020,337,0,0,15370
S,12290,49160020,337,0,0,11497
S,12291,49164020,319,0,0,7462
S,12292,49168024,309,0,0,3399
S,12293,49172020,321,0,0,32158
S,12294,49176024,337,0,0,28257
S,12295,49180024,337,0,0,24256
S,12296,49184020,319,0,0,20173
S,12297,49188020,309,0,0,48998
S,12298,49192020,319,0,0,44943
S,12299,49196020,336,0,0,38977
S,12300,49200020,336,0,0,34854
S,12301,49204020,319,0,0,63720
S,12302,49208020,309,0,0,59649
S,12303,49212020,320,0,0,55765
S,12304,49216020,337,0,0,51643
S,12305,49220020,337,0,0,14875
S,12306,49224020,321,0,0,10984
S,12307,49228020,312,0,0,6960
S,12308,49232020,323,0,0,2860
S,12309,49236020,339,0,0,31645
S,12310,49240020,338,0,0,25727
S,12311,49244024,321,0,0,21697
S,12312,49248020,311,0,0,17620
S,12313,49252020,322,0,0,46336
S,12314,49256020,337,0,0,42480
S,12315,49260024,337,0,0,38493
S,12316,49264020,319,0,0,34392
S,12317,49268020,308,0,0,63218
S,12318,49272020,320,0,0,59237
S,12319,49276020,337,0,0,55253
S,12320,49280020,337,0,0,51082
S,12321,49284024,319,0,0,12374
S,12322,49288020,308,0,0,8370
S,12323,49292020,318,0,0,4377
S,12324,49296020,335,0,0,271
S,12325,49300020,335,0,0,29102
S,12326,49304020,319,0,0,25149
S,12327,49308020,309,0,0,21142
S,12328,49312020,319,0,0,17139
S,12329,49316020,335,0,0,45858
S,12330,49320020,334,0,0,41920
S,12331,49324024,316,0,0,44063
S,12332,49328020,306,0,0,40058
S,12333,49332020,317,0,0,36052
S,12334,49336020,333,0,0,64839
S,12335,49340020,334,0,0,60901
S,12336,49344020,317,0,0,56809
S,12337,49348020,308,0,0,52801
S,12338,49352020,319,0,0,16040
S,12339,49356020,336,0,0,12134
S,12340,49360020,336,0,0,7937
S,12341,49364024,319,0,0,4035
S,12342,49368024,309,0,0,30762
S,12343,49372020,322,0,0,26864
S,12344,49376020,338,0,0,22671
S,12345,49380020,338,0,0,18734
S,12346,49384020,320,0,0,47583
S,12347,49388020,311,0,0,43529
S,12348,49392020,322,0,0,39451
S,12349,49396020,339,0,0,35499
S,12350,49400020,339,0,0,64328
S,12351,49404020,322,0,0,60408
S,12352,49408020,312,0,0,56221
S,12353,49412020,323,0,0,50247
S,12354,49416020,340,0,0,13488
S,12355,49420020,340,0,0,9489
S,12356,49424020,323,0,0,5473
S,12357,49428020,313,0,0,1466
S,12358,49432020,324,0,0,30244
S,12359,49436020,342,0,0,26263
S,12360,49440020,342,0,0,22264
S,12361,49444024,326,0,0,18245
S,12362,49448020,316,0,0,47056
S,12363,49452020,327,0,0,40970
S,12364,49456020,344,0,0,36978
S,12365,49460020,345,0,0,32978
S,12366,49464020,327,0,0,61743
S,12367,49468020,317,0,0,57844
S,12368,49472020,326,0,0,53744
S,12369,49476020,343,0,0,49728
S,12370,49480020,342,0,0,12963
S,12371,49484020,325,0,0,8977
S,12372,49488020,314,0,0,4873
S,12373,49492020,325,0,0,983
S,12374,49496020,342,0,0,3111
S,12375,49500020,343,0,0,31879
S,12376,49504020,325,0,0,27898
S,12377,49508020,315,0,0,23845
S,12378,49512020,326,0,0,19899
S,12379,49516020,343,0,0,48651
S,12380,49520020,342,0,0,44653
S,12381,49524020,325,0,0,40671
S,12382,49528020,315,0,0,36674
S,12383,49532024,327,0,0,65427
S,12384,49536024,343,0,0,61404
S,12385,49540020,344,0,0,55422
S,12386,49544020,326,0,0,51331
S,12387,49548020,317,0,0,14686
S,12388,49552020,329,0,0,10573
S,12389,49556020,348,0,0,6649
S,12390,49560020,350,0,0,2584
S,12391,49564020,334,0,0,31401
S,12392,49568020,322,0,0,27338
S,12393,49572024,335,0,0,23402
S,12394,49576020,352,0,0,19370
S,12395,49580020,353,0,0,46090
S,12396,49584020,337,0,0,42077
S,12397,49588020,327,0,0,38122
S,12398,49592020,336,0,0,34078
S,12399,49596020,352,0,0,62863
S,12400,49600020,350,0,0,58830
S,12401,49604020,330,0,0,54907
S,12402,49608020,317,0,0,50927
S,12403,49612020,324,0,0,14134
S,12404,49616020,339,0,0,10054
S,12405,49620020,337,0,0,6117
S,12406,49624024,319,0,0,100
S,12407,49628020,309,0,0,28867
S,12408,49632020,320,0,0,24793
S,12409,49636020,337,0,0,20841
S,12410,49640024,337,0,0,16774
S,12411,49644020,320,0,0,45626
S,12412,49648020,311,0,0,41514
S,12413,49652020,322,0,0,37630
S,12414,49656020,339,0,0,33548
S,12415,49660020,345,0,0,62375
S,12416,49664020,331,0,0,58154
S,12417,49668020,317,0,0,60669
S,12418,49672020,316,0,0,56351
S,12419,49676020,327,0,0,52677
S,12420,49680020,335,0,0,15785
S,12421,49684020,334,0,0,11529
S,12422,49688020,333,0,0,7913
S,12423,49692020,347,0,0,3678
S,12424,49696024,388,0,0,32482
S,12425,49700020,456,0,0,28419
S,12426,49704020,526,0,0,23590
S,12427,49708020,564,0,0,19389
S,12428,49712020,536,0,0,48118
S,12429,49716020,462,0,0,43137
S,12430,49720020,400,0,0,39228
S,12431,49724020,362,0,0,35175
S,12432,49728020,333,0,0,63807
S,12433,49732020,314,0,0,60137
S,12434,49736020,308,0,0,55812
S,12435,49740020,317,0,0,52140
S,12436,49744020,321,0,0,15286
S,12437,49748020,316,0,0,11114
S,12438,49752020,307,0,0,5254
S,12439,49756020,312,0,0,1068
S,12440,49760020,321,0,0,29754
S,12441,49764020,318,0,0,26084
S,12442,49768020,309,0,0,21772
S,12443,49772020,308,0,0,18092
S,12444,49776020,321,0,0,46782
S,12445,49780020,331,0,0,42517
S,12446,49784020,323,0,0,38910
S,12447,49788020,312,0,0,34596
S,12448,49792020,314,0,0,63353
S,12449,49796020,330,0,0,57512
S,12450,49800020,338,0,0,53331
S,12451,49804020,328,0,0,49640
S,12452,49808020,315,0,0,12787
S,12453,49812020,317,0,0,8532
S,12454,49816020,334,0,0,4804
S,12455,49820020,342,0,0,637
S,12456,49824020,332,0,0,29192
S,12457,49828020,319,0,0,25562
S,12458,49832020,322,0,0,21316
S,12459,49836020,338,0,0,23797
S,12460,49840020,345,0,0,19609
S,12461,49844020,334,0,0,48175
S,12462,49848020,322,0,0,44480
S,12463,49852020,325,0,0,40294
S,12464,49856020,341,0,0,36105
S,12465,49860020,350,0,0,65187
S,12466,49864020,340,0,0,61002
S,12467,49868020,328,0,0,57335
S,12468,49872020,331,0,0,53139
S,12469,49876020,349,0,0,16165
S,12470,49880020,358,0,0,10493
S,12471,49884020,348,0,0,6246
S,12472,49888020,336,0,0,2053
S,12473,49892020,337,0,0,31141
S,12474,49896020,353,0,0,26998
S,12475,49900020,367,0,0,23257
S,12476,49904020,367,0,0,19134
S,12477,49908020,356,0,0,47636
S,12478,49912020,347,0,0,43976
S,12479,49916020,351,0,0,39789
S,12480,49920020,366,0,0,35651
S,12481,49924024,377,0,0,62713
S,12482,49928020,376,0,0,58391
S,12483,49932020,364,0,0,54690
S,12484,49936020,359,0,0,50638
S,12485,49940020,368,0,0,13691
S,12486,49944020,379,0,0,9875
S,12487,49948020,379,0,0,5682
S,12488,49952020,368,0,0,1622
S,12489,49956020,362,0,0,30701
S,12490,49960020,371,0,0,26391
S,12491,49964020,379,0,0,20670
S,12492,49968020,375,0,0,16597
S,12493,49972020,360,0,0,45163
S,12494,49976024,350,0,0,41394
S,12495,49980020,357,0,0,37156
S,12496,49984020,365,0,0,33107
S,12497,49988020,360,0,0,62199
S,12498,49992020,343,0,0,57899
S,12499,49996020,332,0,0,54161
S,12500,50000020,338,0,0,50152
S,12501,50004020,346,0,0,13120
S,12502,50008020,344,0,0,15521
S,12503,50012020,331,0,0,11283
S,12504,50016020,321,0,0,7286
S,12505,50020020,328,0,0,3550
S,12506,50024020,339,0,0,32038
S,12507,50028024,339,0,0,28299
S,12508,50032020,326,0,0,24309
S,12509,50036020,318,0,0,20012
S,12510,50040020,328,0,0,49081
S,12511,50044020,340,0,0,44804
S,12512,50048020,338,0,0,40797
S,12513,50052020,325,0,0,35051
