S,0,12,502,0,0
S,1,4008,502,0,0
S,2,8008,502,0,0
S,3,12008,502,0,0
S,4,16008,502,0,0
S,5,20008,502,0,0
S,6,24008,502,0,0
S,7,28012,502,0,0
S,8,32008,502,0,0
S,9,36012,502,0,0
S,10,40008,502,0,0
S,11,44008,502,0,0
S,12,48008,502,0,0
S,13,52012,502,0,0
S,14,56012,502,0,0
S,15,60012,502,0,0
S,16,64012,505,0,0
S,17,68008,509,0,0
S,18,72008,513,0,0
S,19,76008,516,0,0
S,20,80008,520,0,0
S,21,84008,524,0,0
S,22,88008,528,0,0
S,23,92012,528,0,0
S,24,96008,524,0,0
S,25,100012,521,0,0
S,26,104008,517,0,0
S,27,108008,514,0,0
S,28,112012,510,0,0
S,29,116008,506,0,0
S,30,120008,503,0,0
S,31,124008,503,0,0
S,32,128008,503,0,0
S,33,132008,503,0,0
S,34,136008,503,0,0
S,35,140008,503,0,0
S,36,144008,503,0,0
S,37,148008,503,0,0
S,38,152012,503,0,0
S,39,156008,503,0,0
S,40,160008,496,0,0
S,41,164012,481,0,0
S,42,168008,466,0,0
S,43,172008,466,0,0
S,44,176008,481,0,0
S,45,180008,496,0,0
S,46,184008,503,0,0
S,47,188008,503,0,0
S,48,192008,588,0,0
S,49,196008,673,0,0
S,50,200008,759,0,0
S,51,204008,674,0,0
S,52,208008,589,0,0
S,53,212008,504,0,0
S,54,216008,504,0,0
S,55,220008,488,0,0
S,56,224008,472,0,0
S,57,228008,456,0,0
S,58,232008,439,0,0
S,59,236008,456,0,0
S,60,240008,472,0,0
S,61,244008,488,0,0
S,62,248008,504,0,0
S,63,252008,504,0,0
S,64,256008,504,0,0
S,65,260008,504,0,0
S,66,264008,504,0,0
S,67,268008,504,0,0
S,68,272012,504,0,0
S,69,276008,504,0,0
S,70,280008,504,0,0
S,71,284012,504,0,0
S,72,288008,507,0,0
S,73,292008,513,0,0
S,74,296012,518,0,0
S,75,300008,524,0,0
S,76,304008,529,0,0
S,77,308012,535,0,0
S,78,312008,540,0,0
S,79,316012,545,0,0
S,80,320008,550,0,0
S,81,324008,556,0,0
S,82,328008,561,0,0
S,83,332008,566,0,0
S,84,336008,571,0,0
S,85,340008,576,0,0
S,86,344008,582,0,0
S,87,348008,587,0,0
S,88,352008,587,0,0
S,89,356008,582,0,0
S,90,360012,576,0,0
S,91,364008,571,0,0
S,92,368008,566,0,0
S,93,372012,561,0,0
S,94,376008,556,0,0
S,95,380008,550,0,0
S,96,384008,545,0,0
S,97,388012,540,0,0
S,98,392008,535,0,0
S,99,396008,529,0,0
S,100,400012,525,0,0
S,101,404008,520,0,0
S,102,408008,515,0,0
S,103,412008,509,0,0
S,104,416008,506,0,0
S,105,420008,506,0,0
S,106,424008,506,0,0
S,107,428008,506,0,0
S,108,432008,506,0,0
S,109,436008,506,0,0
S,110,440008,506,0,0
S,111,444008,506,0,0
S,112,448008,506,0,0
S,113,452008,506,0,0
S,114,456008,506,0,0
S,115,460008,506,0,0
S,116,464008,506,0,0
S,117,468008,506,0,0
S,118,472008,506,0,0
S,119,476008,506,0,0
S,120,480008,506,0,0
S,121,484012,506,0,0
S,122,488008,506,0,0
S,123,492008,506,0,0
S,124,496008,506,0,0
S,125,500008,507,0,0
S,126,504008,507,0,0
S,127,508008,507,0,0
S,128,512008,507,0,0
S,129,516008,507,0,0
S,130,520012,507,0,0
S,131,524008,507,0,0
S,132,528008,507,0,0
S,133,532008,507,0,0
S,134,536008,507,0,0
S,135,540012,507,0,0
S,136,544012,510,0,0
S,137,548012,514,0,0
S,138,552008,518,0,0
S,139,556008,521,0,0
S,140,560008,525,0,0
S,141,564008,529,0,0
S,142,568008,533,0,0
S,143,572008,533,0,0
S,144,576008,529,0,0
S,145,580008,525,0,0
S,146,584008,521,0,0
S,147,588012,518,0,0
S,148,592008,514,0,0
S,149,596008,510,0,0
S,150,600008,508,0,0
S,151,604008,508,0,0
S,152,608008,508,0,0
S,153,612008,508,0,0
S,154,616008,508,0,0
S,155,620008,508,0,0
S,156,624008,508,0,0
S,157,628008,508,0,0
S,158,632008,508,0,0
S,159,636012,508,0,0
S,160,640008,501,0,0
S,161,644008,486,0,0
S,162,648008,471,0,0
S,163,652008,471,0,0
S,164,656008,486,0,0
S,165,660008,501,0,0
S,166,664012,508,0,0
S,167,668008,508,0,0
S,168,672008,593,0,0
S,169,676008,678,0,0
S,170,680012,762,0,0
S,171,684008,678,0,0
S,172,688008,593,0,0
S,173,692008,508,0,0
S,174,696008,508,0,0
S,175,700008,493,0,0
S,176,704008,477,0,0
S,177,708008,461,0,0
S,178,712012,445,0,0
S,179,716008,461,0,0
S,180,720008,477,0,0
S,181,724008,493,0,0
S,182,728008,509,0,0
S,183,732008,509,0,0
S,184,736008,509,0,0
S,185,740008,509,0,0
S,186,744008,509,0,0
S,187,748008,509,0,0
S,188,752008,509,0,0
S,189,756008,509,0,0
S,190,760008,509,0,0
S,191,764008,509,0,0
S,192,768008,512,0,0
S,193,772008,518,0,0
S,194,776008,523,0,0
S,195,780008,528,0,0
S,196,784008,533,0,0
S,197,788008,539,0,0
S,198,792008,544,0,0
S,199,796008,549,0,0
S,200,800012,555,0,0
S,201,804008,561,0,0
S,202,808008,566,0,0
S,203,812012,571,0,0
S,204,816012,576,0,0
S,205,820008,581,0,0
S,206,824008,587,0,0
S,207,828008,592,0,0
S,208,832012,592,0,0
S,209,836008,587,0,0
S,210,840008,581,0,0
S,211,844008,576,0,0
S,212,848008,571,0,0
S,213,852012,566,0,0
S,214,856008,561,0,0
S,215,860008,555,0,0
S,216,864008,550,0,0
S,217,868008,545,0,0
S,218,872008,540,0,0
S,219,876008,534,0,0
S,220,880008,529,0,0
S,221,884008,524,0,0
S,222,888008,519,0,0
S,223,892008,513,0,0
S,224,896008,510,0,0
S,225,900008,511,0,0
S,226,904008,511,0,0
S,227,908008,511,0,0
S,228,912008,511,0,0
S,229,916012,511,0,0
S,230,920012,511,0,0
S,231,924008,511,0,0
S,232,928012,511,0,0
S,233,932008,511,0,0
S,234,936008,511,0,0
S,235,940008,511,0,0
S,236,944008,511,0,0
S,237,948008,511,0,0
S,238,952008,511,0,0
S,239,956008,511,0,0
S,240,960008,511,0,0
S,241,964008,511,0,0
S,242,968008,511,0,0
S,243,972008,511,0,0
S,244,976008,511,0,0
S,245,980008,511,0,0
S,246,984008,511,0,0
S,247,988012,511,0,0
S,248,992008,511,0,0
S,249,996008,511,0,0
S,250,1000008,512,0,0
S,251,1004008,512,0,0
S,252,1008008,512,0,0
S,253,1012008,512,0,0
S,254,1016008,512,0,0
S,255,1020008,512,0,0
S,256,1024008,515,0,0
S,257,1028008,519,0,0
S,258,1032008,523,0,0
S,259,1036008,526,0,0
S,260,1040012,530,0,0
S,261,1044008,534,0,0
S,262,1048012,538,0,0
S,263,1052008,538,0,0
S,264,1056008,534,0,0
S,265,1060008,530,0,0
S,266,1064008,526,0,0
S,267,1068008,523,0,0
S,268,1072008,519,0,0
S,269,1076008,515,0,0
S,270,1080008,512,0,0
S,271,1084008,512,0,0
S,272,1088008,512,0,0
S,273,1092008,512,0,0
S,274,1096008,512,0,0
S,275,1100008,513,0,0
S,276,1104008,513,0,0
S,277,1108008,513,0,0
S,278,1112008,513,0,0
S,279,1116008,513,0,0
S,280,1120008,506,0,0
S,281,1124008,491,0,0
S,282,1128008,476,0,0
S,283,1132008,476,0,0
S,284,1136008,491,0,0
S,285,1140008,506,0,0
S,286,1144008,513,0,0
S,287,1148008,513,0,0
S,288,1152012,598,0,0
S,289,1156008,683,0,0
S,290,1160008,768,0,0
S,291,1164012,682,0,0
S,292,1168008,598,0,0
S,293,1172008,513,0,0
S,294,1176008,513,0,0
S,295,1180008,497,0,0
S,296,1184008,481,0,0
S,297,1188008,465,0,0
S,298,1192008,448,0,0
S,299,1196008,465,0,0
S,300,1200008,482,0,0
S,301,1204008,498,0,0
S,302,1208012,514,0,0
S,303,1212008,514,0,0
S,304,1216008,514,0,0
S,305,1220008,514,0,0
S,306,1224008,514,0,0
S,307,1228008,514,0,0
S,308,1232008,514,0,0
S,309,1236008,514,0,0
S,310,1240008,514,0,0
S,311,1244008,514,0,0
S,312,1248012,517,0,0
S,313,1252008,523,0,0
S,314,1256008,528,0,0
S,315,1260008,533,0,0
S,316,1264008,538,0,0
S,317,1268008,544,0,0
S,318,1272008,549,0,0
S,319,1276008,554,0,0
S,320,1280008,559,0,0
S,321,1284008,565,0,0
S,322,1288008,570,0,0
S,323,1292008,575,0,0
S,324,1296008,580,0,0
S,325,1300008,586,0,0
S,326,1304008,592,0,0
S,327,1308012,597,0,0
S,328,1312008,597,0,0
S,329,1316008,592,0,0
S,330,1320008,586,0,0
S,331,1324008,581,0,0
S,332,1328008,576,0,0
S,333,1332008,571,0,0
S,334,1336008,566,0,0
S,335,1340008,560,0,0
S,336,1344008,555,0,0
S,337,1348008,550,0,0
S,338,1352008,545,0,0
S,339,1356012,539,0,0
S,340,1360008,534,0,0
S,341,1364008,529,0,0
S,342,1368012,524,0,0
S,343,1372008,518,0,0
S,344,1376008,515,0,0
S,345,1380008,515,0,0
S,346,1384008,515,0,0
S,347,1388012,515,0,0
S,348,1392008,515,0,0
S,349,1396008,515,0,0
S,350,1400012,516,0,0
S,351,1404008,516,0,0
S,352,1408008,516,0,0
S,353,1412008,516,0,0
S,354,1416008,516,0,0
S,355,1420008,516,0,0
S,356,1424008,516,0,0
S,357,1428008,516,0,0
S,358,1432008,516,0,0
S,359,1436008,516,0,0
S,360,1440012,516,0,0
S,361,1444008,516,0,0
S,362,1448008,516,0,0
S,363,1452008,516,0,0
S,364,1456008,516,0,0
S,365,1460012,516,0,0
S,366,1464008,516,0,0
S,367,1468008,516,0,0
S,368,1472008,516,0,0
S,369,1476008,516,0,0
S,370,1480008,516,0,0
S,371,1484008,516,0,0
S,372,1488008,516,0,0
S,373,1492008,516,0,0
S,374,1496008,516,0,0
S,375,1500008,517,0,0
S,376,1504008,520,0,0
S,377,1508008,524,0,0
S,378,1512008,528,0,0
S,379,1516008,531,0,0
S,380,1520008,535,0,0
S,381,1524008,539,0,0
S,382,1528008,543,0,0
S,383,1532008,543,0,0
S,384,1536008,539,0,0
S,385,1540008,535,0,0
S,386,1544008,531,0,0
S,387,1548008,528,0,0
S,388,1552008,524,0,0
S,389,1556008,520,0,0
S,390,1560008,517,0,0
S,391,1564008,517,0,0
S,392,1568008,517,0,0
S,393,1572012,517,0,0
S,394,1576008,517,0,0
S,395,1580008,517,0,0
S,396,1584008,517,0,0
S,397,1588008,517,0,0
S,398,1592008,517,0,0
S,399,1596008,517,0,0
S,400,1600008,511,0,0
S,401,1604012,496,0,0
S,402,1608008,481,0,0
S,403,1612008,481,0,0
S,404,1616008,496,0,0
S,405,1620008,511,0,0
S,406,1624008,518,0,0
S,407,1628008,518,0,0
S,408,1632008,603,0,0
S,409,1636008,688,0,0
S,410,1640008,773,0,0
S,411,1644008,688,0,0
S,412,1648008,603,0,0
S,413,1652008,518,0,0
S,414,1656008,518,0,0
S,415,1660008,502,0,0
S,416,1664012,486,0,0
S,417,1668008,470,0,0
S,418,1672012,454,0,0
S,419,1676008,470,0,0
S,420,1680008,486,0,0
S,421,1684012,502,0,0
S,422,1688008,518,0,0
S,423,1692008,518,0,0
S,424,1696008,518,0,0
S,425,1700008,519,0,0
S,426,1704008,519,0,0
S,427,1708008,519,0,0
S,428,1712008,519,0,0
S,429,1716012,519,0,0
S,430,1720008,519,0,0
S,431,1724008,519,0,0
S,432,1728008,522,0,0
S,433,1732008,528,0,0
S,434,1736008,533,0,0
S,435,1740012,538,0,0
S,436,1744008,543,0,0
S,437,1748008,549,0,0
S,438,1752012,554,0,0
S,439,1756008,559,0,0
S,440,1760012,564,0,0
S,441,1764008,570,0,0
S,442,1768008,575,0,0
S,443,1772008,580,0,0
S,444,1776008,585,0,0
S,445,1780008,590,0,0
S,446,1784012,596,0,0
S,447,1788008,601,0,0
S,448,1792008,601,0,0
S,449,1796008,596,0,0
S,450,1800012,591,0,0
S,451,1804008,586,0,0
S,452,1808008,581,0,0
S,453,1812008,576,0,0
S,454,1816008,571,0,0
S,455,1820008,565,0,0
S,456,1824008,560,0,0
S,457,1828008,555,0,0
S,458,1832012,550,0,0
S,459,1836008,544,0,0
S,460,1840008,539,0,0
S,461,1844008,534,0,0
S,462,1848008,529,0,0
S,463,1852008,523,0,0
S,464,1856008,520,0,0
S,465,1860008,520,0,0
S,466,1864008,520,0,0
S,467,1868008,520,0,0
S,468,1872008,520,0,0
S,469,1876008,520,0,0
S,470,1880008,520,0,0
S,471,1884008,520,0,0
S,472,1888008,520,0,0
S,473,1892008,520,0,0
S,474,1896012,520,0,0
S,475,1900008,521,0,0
S,476,1904008,521,0,0
S,477,1908008,521,0,0
S,478,1912008,521,0,0
S,479,1916008,521,0,0
S,480,1920008,521,0,0
S,481,1924008,521,0,0
S,482,1928008,521,0,0
S,483,1932008,521,0,0
S,484,1936008,521,0,0
S,485,1940008,521,0,0
S,486,1944008,521,0,0
S,487,1948008,521,0,0
S,488,1952008,521,0,0
S,489,1956012,521,0,0
S,490,1960008,521,0,0
S,491,1964008,521,0,0
S,492,1968008,521,0,0
S,493,1972008,521,0,0
S,494,1976008,521,0,0
S,495,1980008,521,0,0
S,496,1984012,524,0,0
S,497,1988008,528,0,0
S,498,1992008,532,0,0
S,499,1996008,535,0,0
S,500,2000008,540,0,0
S,501,2004008,544,0,0
S,502,2008012,548,0,0
S,503,2012008,548,0,0
S,504,2016008,544,0,0
S,505,2020008,540,0,0
S,506,2024008,536,0,0
S,507,2028008,533,0,0
S,508,2032008,529,0,0
S,509,2036008,525,0,0
S,510,2040008,522,0,0
S,511,2044008,522,0,0
S,512,2048008,522,0,0
S,513,2052008,522,0,0
S,514,2056008,522,0,0
S,515,2060008,522,0,0
S,516,2064008,522,0,0
S,517,2068008,522,0,0
S,518,2072012,522,0,0
S,519,2076008,522,0,0
S,520,2080008,515,0,0
S,521,2084008,500,0,0
S,522,2088008,485,0,0
S,523,2092008,485,0,0
S,524,2096008,500,0,0
S,525,2100008,514,0,0
S,526,2104012,521,0,0
S,527,2108008,521,0,0
S,528,2112008,606,0,0
S,529,2116008,691,0,0
S,530,2120012,775,0,0
S,531,2124008,691,0,0
S,532,2128008,606,0,0
S,533,2132008,521,0,0
S,534,2136008,521,0,0
S,535,2140008,505,0,0
S,536,2144008,489,0,0
S,537,2148008,473,0,0
S,538,2152008,456,0,0
S,539,2156008,473,0,0
S,540,2160008,489,0,0
S,541,2164008,505,0,0
S,542,2168008,521,0,0
S,543,2172012,521,0,0
S,544,2176008,521,0,0
S,545,2180008,521,0,0
S,546,2184008,521,0,0
S,547,2188008,521,0,0
S,548,2192012,521,0,0
S,549,2196008,521,0,0
S,550,2200008,520,0,0
S,551,2204008,520,0,0
S,552,2208008,523,0,0
S,553,2212008,529,0,0
S,554,2216008,534,0,0
S,555,2220008,539,0,0
S,556,2224008,544,0,0
S,557,2228008,550,0,0
S,558,2232008,555,0,0
S,559,2236008,560,0,0
S,560,2240008,565,0,0
S,561,2244008,571,0,0
S,562,2248008,576,0,0
S,563,2252008,581,0,0
S,564,2256008,586,0,0
S,565,2260012,591,0,0
S,566,2264012,597,0,0
S,567,2268008,602,0,0
S,568,2272008,602,0,0
S,569,2276008,597,0,0
S,570,2280008,591,0,0
S,571,2284008,586,0,0
S,572,2288008,581,0,0
S,573,2292012,576,0,0
S,574,2296008,571,0,0
S,575,2300008,564,0,0
S,576,2304008,559,0,0
S,577,2308008,554,0,0
S,578,2312008,549,0,0
S,579,2316008,543,0,0
S,580,2320008,538,0,0
S,581,2324008,533,0,0
S,582,2328008,528,0,0
S,583,2332008,522,0,0
S,584,2336012,519,0,0
S,585,2340012,519,0,0
S,586,2344008,519,0,0
S,587,2348008,519,0,0
S,588,2352008,519,0,0
S,589,2356008,519,0,0
S,590,2360008,519,0,0
S,591,2364008,519,0,0
S,592,2368008,519,0,0
S,593,2372008,519,0,0
S,594,2376008,519,0,0
S,595,2380012,519,0,0
S,596,2384008,519,0,0
S,597,2388008,519,0,0
S,598,2392008,519,0,0
S,599,2396008,519,0,0
S,600,2400008,518,0,0
S,601,2404008,518,0,0
S,602,2408012,518,0,0
S,603,2412008,518,0,0
S,604,2416008,518,0,0
S,605,2420008,518,0,0
S,606,2424008,518,0,0
S,607,2428012,518,0,0
S,608,2432008,518,0,0
S,609,2436008,518,0,0
S,610,2440008,518,0,0
S,611,2444008,518,0,0
S,612,2448008,518,0,0
S,613,2452008,518,0,0
S,614,2456008,518,0,0
S,615,2460008,518,0,0
S,616,2464008,521,0,0
S,617,2468012,525,0,0
S,618,2472008,529,0,0
S,619,2476008,532,0,0
S,620,2480008,536,0,0
S,621,2484008,540,0,0
S,622,2488008,544,0,0
S,623,2492008,544,0,0
S,624,2496008,540,0,0
S,625,2500008,535,0,0
S,626,2504012,531,0,0
S,627,2508008,528,0,0
S,628,2512008,524,0,0
S,629,2516008,520,0,0
S,630,2520008,517,0,0
S,631,2524008,517,0,0
S,632,2528008,517,0,0
S,633,2532008,517,0,0
S,634,2536008,517,0,0
S,635,2540008,517,0,0
S,636,2544008,517,0,0
S,637,2548012,517,0,0
S,638,2552008,517,0,0
S,639,2556008,517,0,0
S,640,2560008,510,0,0
S,641,2564008,495,0,0
S,642,2568008,480,0,0
S,643,2572012,480,0,0
S,644,2576008,495,0,0
S,645,2580008,510,0,0
S,646,2584012,517,0,0
S,647,2588008,517,0,0
S,648,2592008,602,0,0
S,649,2596008,687,0,0
S,650,2600008,771,0,0
S,651,2604012,685,0,0
S,652,2608008,601,0,0
S,653,2612008,516,0,0
S,654,2616008,516,0,0
S,655,2620012,500,0,0
S,656,2624008,484,0,0
S,657,2628008,468,0,0
S,658,2632008,451,0,0
S,659,2636008,468,0,0
S,660,2640008,484,0,0
S,661,2644008,500,0,0
S,662,2648008,516,0,0
S,663,2652008,516,0,0
S,664,2656008,516,0,0
S,665,2660008,516,0,0
S,666,2664008,516,0,0
S,667,2668008,516,0,0
S,668,2672008,516,0,0
S,669,2676008,516,0,0
S,670,2680008,516,0,0
S,671,2684008,516,0,0
S,672,2688012,519,0,0
S,673,2692008,525,0,0
S,674,2696008,530,0,0
S,675,2700008,534,0,0
S,676,2704008,539,0,0
S,677,2708008,545,0,0
S,678,2712008,550,0,0
S,679,2716008,555,0,0
S,680,2720008,560,0,0
S,681,2724008,566,0,0
S,682,2728008,571,0,0
S,683,2732008,576,0,0
S,684,2736008,581,0,0
S,685,2740008,586,0,0
S,686,2744008,592,0,0
S,687,2748008,597,0,0
S,688,2752008,597,0,0
S,689,2756008,592,0,0
S,690,2760008,586,0,0
S,691,2764008,581,0,0
S,692,2768008,576,0,0
S,693,2772008,571,0,0
S,694,2776008,566,0,0
S,695,2780008,560,0,0
S,696,2784012,555,0,0
S,697,2788008,550,0,0
S,698,2792008,545,0,0
S,699,2796008,539,0,0
S,700,2800008,533,0,0
S,701,2804008,528,0,0
S,702,2808008,523,0,0
S,703,2812008,517,0,0
S,704,2816012,514,0,0
S,705,2820008,514,0,0
S,706,2824008,514,0,0
S,707,2828008,514,0,0
S,708,2832008,514,0,0
S,709,2836008,514,0,0
S,710,2840008,514,0,0
S,711,2844008,514,0,0
S,712,2848008,514,0,0
S,713,2852008,514,0,0
S,714,2856008,514,0,0
S,715,2860008,514,0,0
S,716,2864008,514,0,0
S,717,2868012,514,0,0
S,718,2872012,514,0,0
S,719,2876008,514,0,0
S,720,2880008,514,0,0
S,721,2884008,514,0,0
S,722,2888008,514,0,0
S,723,2892008,514,0,0
S,724,2896012,514,0,0
S,725,2900008,513,0,0
S,726,2904008,513,0,0
S,727,2908008,513,0,0
S,728,2912008,513,0,0
S,729,2916008,513,0,0
S,730,2920008,513,0,0
S,731,2924008,513,0,0
S,732,2928012,513,0,0
S,733,2932008,513,0,0
S,734,2936008,513,0,0
S,735,2940012,513,0,0
S,736,2944008,516,0,0
S,737,2948008,520,0,0
S,738,2952008,524,0,0
S,739,2956008,527,0,0
S,740,2960008,531,0,0
S,741,2964008,535,0,0
S,742,2968008,539,0,0
S,743,2972008,539,0,0
S,744,2976008,535,0,0
S,745,2980012,531,0,0
S,746,2984008,527,0,0
S,747,2988008,524,0,0
S,748,2992008,520,0,0
S,749,2996008,516,0,0
S,750,3000012,512,0,0
S,751,3004008,512,0,0
S,752,3008008,512,0,0
S,753,3012008,512,0,0
S,754,3016008,512,0,0
S,755,3020008,512,0,0
S,756,3024008,512,0,0
S,757,3028008,512,0,0
S,758,3032008,512,0,0
S,759,3036008,512,0,0
S,760,3040008,505,0,0
S,761,3044008,490,0,0
S,762,3048008,475,0,0
S,763,3052012,475,0,0
S,764,3056008,490,0,0
S,765,3060008,505,0,0
S,766,3064008,512,0,0
S,767,3068012,512,0,0
S,768,3072008,597,0,0
S,769,3076008,682,0,0
S,770,3080008,767,0,0
S,771,3084008,682,0,0
S,772,3088008,597,0,0
S,773,3092008,512,0,0
S,774,3096008,512,0,0
S,775,3100008,495,0,0
S,776,3104008,479,0,0
S,777,3108008,463,0,0
S,778,3112008,446,0,0
S,779,3116008,463,0,0
S,780,3120008,479,0,0
S,781,3124008,495,0,0
S,782,3128008,511,0,0
S,783,3132008,511,0,0
S,784,3136008,511,0,0
S,785,3140008,511,0,0
S,786,3144008,511,0,0
S,787,3148008,511,0,0
S,788,3152008,511,0,0
S,789,3156008,511,0,0
S,790,3160008,511,0,0
S,791,3164008,511,0,0
S,792,3168008,514,0,0
S,793,3172008,520,0,0
S,794,3176008,525,0,0
S,795,3180008,530,0,0
S,796,3184008,535,0,0
S,797,3188008,541,0,0
S,798,3192008,546,0,0
S,799,3196008,551,0,0
S,800,3200008,555,0,0
S,801,3204008,561,0,0
S,802,3208008,566,0,0
S,803,3212008,571,0,0
S,804,3216008,576,0,0
S,805,3220008,581,0,0
S,806,3224008,587,0,0
S,807,3228012,592,0,0
S,808,3232008,592,0,0
S,809,3236008,587,0,0
S,810,3240008,581,0,0
S,811,3244008,576,0,0
S,812,3248012,571,0,0
S,813,3252008,566,0,0
S,814,3256008,561,0,0
S,815,3260008,555,0,0
S,816,3264008,550,0,0
S,817,3268008,545,0,0
S,818,3272008,540,0,0
S,819,3276008,534,0,0
S,820,3280008,529,0,0
S,821,3284012,524,0,0
S,822,3288008,519,0,0
S,823,3292008,513,0,0
S,824,3296012,510,0,0
S,825,3300008,509,0,0
S,826,3304008,509,0,0
S,827,3308008,509,0,0
S,828,3312008,509,0,0
S,829,3316008,509,0,0
S,830,3320008,509,0,0
S,831,3324008,509,0,0
S,832,3328012,509,0,0
S,833,3332008,509,0,0
S,834,3336008,509,0,0
S,835,3340008,509,0,0
S,836,3344008,509,0,0
S,837,3348008,509,0,0
S,838,3352008,509,0,0
S,839,3356008,509,0,0
S,840,3360012,509,0,0
S,841,3364008,509,0,0
S,842,3368008,509,0,0
S,843,3372008,509,0,0
S,844,3376008,509,0,0
S,845,3380008,509,0,0
S,846,3384008,509,0,0
S,847,3388008,509,0,0
S,848,3392012,509,0,0
S,849,3396008,509,0,0
S,850,3400008,508,0,0
S,851,3404012,508,0,0
S,852,3408008,508,0,0
S,853,3412012,508,0,0
S,854,3416008,508,0,0
S,855,3420012,508,0,0
S,856,3424008,511,0,0
S,857,3428008,515,0,0
S,858,3432008,519,0,0
S,859,3436008,522,0,0
S,860,3440008,526,0,0
S,861,3444008,530,0,0
S,862,3448008,534,0,0
S,863,3452008,534,0,0
S,864,3456008,530,0,0
S,865,3460008,526,0,0
S,866,3464012,522,0,0
S,867,3468008,519,0,0
S,868,3472008,515,0,0
S,869,3476008,511,0,0
S,870,3480008,508,0,0
S,871,3484008,508,0,0
S,872,3488008,508,0,0
S,873,3492008,508,0,0
S,874,3496008,508,0,0
S,875,3500008,507,0,0
S,876,3504008,507,0,0
S,877,3508008,507,0,0
S,878,3512012,507,0,0
S,879,3516008,507,0,0
S,880,3520008,500,0,0
S,881,3524008,485,0,0
S,882,3528008,470,0,0
S,883,3532008,470,0,0
S,884,3536008,485,0,0
S,885,3540008,500,0,0
S,886,3544008,507,0,0
S,887,3548008,507,0,0
S,888,3552012,592,0,0
S,889,3556008,677,0,0
S,890,3560008,762,0,0
S,891,3564008,677,0,0
S,892,3568008,592,0,0
S,893,3572008,507,0,0
S,894,3576008,507,0,0
S,895,3580008,491,0,0
S,896,3584012,475,0,0
S,897,3588008,459,0,0
S,898,3592008,442,0,0
S,899,3596008,459,0,0
S,900,3600008,474,0,0
S,901,3604008,490,0,0
S,902,3608012,506,0,0
S,903,3612008,506,0,0
S,904,3616008,506,0,0
S,905,3620008,506,0,0
S,906,3624008,506,0,0
S,907,3628008,506,0,0
S,908,3632008,506,0,0
S,909,3636008,506,0,0
S,910,3640012,506,0,0
S,911,3644008,506,0,0
S,912,3648008,509,0,0
S,913,3652008,515,0,0
S,914,3656012,520,0,0
S,915,3660008,525,0,0
S,916,3664008,530,0,0
S,917,3668008,536,0,0
S,918,3672008,541,0,0
S,919,3676008,546,0,0
S,920,3680008,551,0,0
S,921,3684008,557,0,0
S,922,3688008,562,0,0
S,923,3692008,567,0,0
S,924,3696008,572,0,0
S,925,3700008,576,0,0
S,926,3704008,582,0,0
S,927,3708008,587,0,0
S,928,3712008,587,0,0
S,929,3716008,582,0,0
S,930,3720008,576,0,0
S,931,3724008,571,0,0
S,932,3728008,566,0,0
S,933,3732008,561,0,0
S,934,3736008,556,0,0
S,935,3740012,550,0,0
S,936,3744008,545,0,0
S,937,3748008,540,0,0
S,938,3752012,535,0,0
S,939,3756008,529,0,0
S,940,3760008,524,0,0
S,941,3764008,519,0,0
S,942,3768012,514,0,0
S,943,3772008,508,0,0
S,944,3776008,505,0,0
S,945,3780008,505,0,0
S,946,3784008,505,0,0
S,947,3788008,505,0,0
S,948,3792008,505,0,0
S,949,3796012,505,0,0
S,950,3800008,504,0,0
S,951,3804008,504,0,0
S,952,3808008,504,0,0
S,953,3812008,504,0,0
S,954,3816008,504,0,0
S,955,3820008,504,0,0
S,956,3824008,504,0,0
S,957,3828008,504,0,0
S,958,3832008,504,0,0
S,959,3836008,504,0,0
S,960,3840012,504,0,0
S,961,3844008,504,0,0
S,962,3848008,504,0,0
S,963,3852008,504,0,0
S,964,3856008,504,0,0
S,965,3860008,504,0,0
S,966,3864008,504,0,0
S,967,3868008,504,0,0
S,968,3872008,504,0,0
S,969,3876008,504,0,0
S,970,3880008,504,0,0
S,971,3884008,504,0,0
S,972,3888008,504,0,0
S,973,3892008,504,0,0
S,974,3896008,504,0,0
S,975,3900008,503,0,0
S,976,3904008,506,0,0
S,977,3908008,510,0,0
S,978,3912008,514,0,0
S,979,3916008,517,0,0
S,980,3920008,521,0,0
S,981,3924008,525,0,0
S,982,3928008,529,0,0
S,983,3932008,529,0,0
S,984,3936012,525,0,0
S,985,3940008,521,0,0
S,986,3944008,517,0,0
S,987,3948008,514,0,0
S,988,3952008,510,0,0
S,989,3956008,506,0,0
S,990,3960008,503,0,0
S,991,3964008,503,0,0
S,992,3968008,503,0,0
S,993,3972008,503,0,0
S,994,3976012,503,0,0
S,995,3980008,503,0,0
S,996,3984008,503,0,0
S,997,3988012,503,0,0
S,998,3992008,503,0,0
S,999,3996008,503,0,0
S,1000,4000008,495,0,0
S,1001,4004008,480,0,0
S,1002,4008008,465,0,0
S,1003,4012008,465,0,0
S,1004,4016012,480,0,0
S,1005,4020008,495,0,0
S,1006,4024008,502,0,0
S,1007,4028008,502,0,0
S,1008,4032008,587,0,0
S,1009,4036008,672,0,0
S,1010,4040008,757,0,0
S,1011,4044008,672,0,0
S,1012,4048008,587,0,0
S,1013,4052008,502,0,0
S,1014,4056008,502,0,0
S,1015,4060008,486,0,0
S,1016,4064012,470,0,0
S,1017,4068008,454,0,0
S,1018,4072008,437,0,0
S,1019,4076008,454,0,0
S,1020,4080008,470,0,0
S,1021,4084008,486,0,0
S,1022,4088008,502,0,0
S,1023,4092008,502,0,0
S,1024,4096008,502,0,0
S,1025,4100008,503,0,0
S,1026,4104008,503,0,0
S,1027,4108008,503,0,0
S,1028,4112008,503,0,0
S,1029,4116008,503,0,0
S,1030,4120008,503,0,0
S,1031,4124008,503,0,0
S,1032,4128008,506,0,0
S,1033,4132008,512,0,0
S,1034,4136008,517,0,0
S,1035,4140012,522,0,0
S,1036,4144008,527,0,0
S,1037,4148008,533,0,0
S,1038,4152008,538,0,0
S,1039,4156008,543,0,0
S,1040,4160008,548,0,0
S,1041,4164008,554,0,0
S,1042,4168008,559,0,0
S,1043,4172008,564,0,0
S,1044,4176008,569,0,0
S,1045,4180008,574,0,0
S,1046,4184008,580,0,0
S,1047,4188008,585,0,0
S,1048,4192008,585,0,0
S,1049,4196008,580,0,0
S,1050,4200008,575,0,0
S,1051,4204008,570,0,0
S,1052,4208008,565,0,0
S,1053,4212008,560,0,0
S,1054,4216008,555,0,0
S,1055,4220012,549,0,0
S,1056,4224008,544,0,0
S,1057,4228008,539,0,0
S,1058,4232008,534,0,0
S,1059,4236008,528,0,0
S,1060,4240008,523,0,0
S,1061,4244008,518,0,0
S,1062,4248008,513,0,0
S,1063,4252008,507,0,0
S,1064,4256008,504,0,0
S,1065,4260008,504,0,0
S,1066,4264008,504,0,0
S,1067,4268008,504,0,0
S,1068,4272008,504,0,0
S,1069,4276008,504,0,0
S,1070,4280008,504,0,0
S,1071,4284008,504,0,0
S,1072,4288008,504,0,0
S,1073,4292008,504,0,0
S,1074,4296008,504,0,0
S,1075,4300008,505,0,0
S,1076,4304008,505,0,0
S,1077,4308008,505,0,0
S,1078,4312008,505,0,0
S,1079,4316008,505,0,0
S,1080,4320008,505,0,0
S,1081,4324008,505,0,0
S,1082,4328008,505,0,0
S,1083,4332008,505,0,0
S,1084,4336008,505,0,0
S,1085,4340008,505,0,0
S,1086,4344008,505,0,0
S,1087,4348008,505,0,0
S,1088,4352008,505,0,0
S,1089,4356008,505,0,0
S,1090,4360008,505,0,0
S,1091,4364008,505,0,0
S,1092,4368012,505,0,0
S,1093,4372008,505,0,0
S,1094,4376008,505,0,0
S,1095,4380008,505,0,0
S,1096,4384008,508,0,0
S,1097,4388008,512,0,0
S,1098,4392008,516,0,0
S,1099,4396008,519,0,0
S,1100,4400012,524,0,0
S,1101,4404008,528,0,0
S,1102,4408008,532,0,0
S,1103,4412008,532,0,0
S,1104,4416008,528,0,0
S,1105,4420008,524,0,0
S,1106,4424008,520,0,0
S,1107,4428008,517,0,0
S,1108,4432008,513,0,0
S,1109,4436008,509,0,0
S,1110,4440008,506,0,0
S,1111,4444008,506,0,0
S,1112,4448008,506,0,0
S,1113,4452008,506,0,0
S,1114,4456008,506,0,0
S,1115,4460008,506,0,0
S,1116,4464008,506,0,0
S,1117,4468008,506,0,0
S,1118,4472012,506,0,0
S,1119,4476008,506,0,0
S,1120,4480008,499,0,0
S,1121,4484008,484,0,0
S,1122,4488008,469,0,0
S,1123,4492008,469,0,0
S,1124,4496008,484,0,0
S,1125,4500008,500,0,0
S,1126,4504008,507,0,0
S,1127,4508008,507,0,0
S,1128,4512008,592,0,0
S,1129,4516008,677,0,0
S,1130,4520008,762,0,0
S,1131,4524008,677,0,0
S,1132,4528008,592,0,0
S,1133,4532008,507,0,0
S,1134,4536008,507,0,0
S,1135,4540008,491,0,0
S,1136,4544012,475,0,0
S,1137,4548008,459,0,0
S,1138,4552008,442,0,0
S,1139,4556008,459,0,0
S,1140,4560008,475,0,0
S,1141,4564008,491,0,0
S,1142,4568008,507,0,0
S,1143,4572008,507,0,0
S,1144,4576008,507,0,0
S,1145,4580008,507,0,0
S,1146,4584008,507,0,0
S,1147,4588008,507,0,0
S,1148,4592008,507,0,0
S,1149,4596008,507,0,0
S,1150,4600008,508,0,0
S,1151,4604008,508,0,0
S,1152,4608012,511,0,0
S,1153,4612008,517,0,0
S,1154,4616008,522,0,0
S,1155,4620008,527,0,0
S,1156,4624008,532,0,0
S,1157,4628008,538,0,0
S,1158,4632008,543,0,0
S,1159,4636008,548,0,0
S,1160,4640008,553,0,0
S,1161,4644008,559,0,0
S,1162,4648008,564,0,0
S,1163,4652008,569,0,0
S,1164,4656008,574,0,0
S,1165,4660008,579,0,0
S,1166,4664008,585,0,0
S,1167,4668008,590,0,0
S,1168,4672012,590,0,0
S,1169,4676012,585,0,0
S,1170,4680008,579,0,0
S,1171,4684012,574,0,0
S,1172,4688012,569,0,0
S,1173,4692012,564,0,0
S,1174,4696008,559,0,0
S,1175,4700008,554,0,0
S,1176,4704008,549,0,0
S,1177,4708008,544,0,0
S,1178,4712008,539,0,0
S,1179,4716008,533,0,0
S,1180,4720008,528,0,0
S,1181,4724008,523,0,0
S,1182,4728008,518,0,0
S,1183,4732008,512,0,0
S,1184,4736012,509,0,0
S,1185,4740008,509,0,0
S,1186,4744008,509,0,0
S,1187,4748008,509,0,0
S,1188,4752008,509,0,0
S,1189,4756008,509,0,0
S,1190,4760008,509,0,0
S,1191,4764008,509,0,0
S,1192,4768008,509,0,0
S,1193,4772008,509,0,0
S,1194,4776008,509,0,0
S,1195,4780012,509,0,0
S,1196,4784008,509,0,0
S,1197,4788008,509,0,0
S,1198,4792008,509,0,0
S,1199,4796008,509,0,0
S,1200,4800008,510,0,0
S,1201,4804008,510,0,0
S,1202,4808008,510,0,0
S,1203,4812008,510,0,0
S,1204,4816008,510,0,0
S,1205,4820008,510,0,0
S,1206,4824008,510,0,0
S,1207,4828008,510,0,0
S,1208,4832008,510,0,0
S,1209,4836012,510,0,0
S,1210,4840008,510,0,0
S,1211,4844008,510,0,0
S,1212,4848008,510,0,0
S,1213,4852012,510,0,0
S,1214,4856008,510,0,0
S,1215,4860012,510,0,0
S,1216,4864008,513,0,0
S,1217,4868008,517,0,0
S,1218,4872008,521,0,0
S,1219,4876008,524,0,0
S,1220,4880008,528,0,0
S,1221,4884008,532,0,0
S,1222,4888008,536,0,0
S,1223,4892008,536,0,0
S,1224,4896008,532,0,0
S,1225,4900008,529,0,0
S,1226,4904008,525,0,0
S,1227,4908008,522,0,0
S,1228,4912008,518,0,0
S,1229,4916008,514,0,0
S,1230,4920008,511,0,0
S,1231,4924008,511,0,0
S,1232,4928012,511,0,0
S,1233,4932008,511,0,0
S,1234,4936008,511,0,0
S,1235,4940008,511,0,0
S,1236,4944008,511,0,0
S,1237,4948008,511,0,0
S,1238,4952008,511,0,0
S,1239,4956008,511,0,0
S,1240,4960008,504,0,0
S,1241,4964008,489,0,0
S,1242,4968012,474,0,0
S,1243,4972008,474,0,0
S,1244,4976008,489,0,0
S,1245,4980008,504,0,0
S,1246,4984008,511,0,0
S,1247,4988008,511,0,0
S,1248,4992008,596,0,0
S,1249,4996012,681,0,0
S,1250,5000008,767,0,0
S,1251,5004008,682,0,0
S,1252,5008008,597,0,0
S,1253,5012008,512,0,0
S,1254,5016008,512,0,0
S,1255,5020008,496,0,0
S,1256,5024008,480,0,0
S,1257,5028008,464,0,0
S,1258,5032008,447,0,0
S,1259,5036008,464,0,0
S,1260,5040008,480,0,0
S,1261,5044008,496,0,0
S,1262,5048008,512,0,0
S,1263,5052008,512,0,0
S,1264,5056008,512,0,0
S,1265,5060008,512,0,0
S,1266,5064008,512,0,0
S,1267,5068008,512,0,0
S,1268,5072012,512,0,0
S,1269,5076008,512,0,0
S,1270,5080008,512,0,0
S,1271,5084008,512,0,0
S,1272,5088012,515,0,0
S,1273,5092008,521,0,0
S,1274,5096008,526,0,0
S,1275,5100012,532,0,0
S,1276,5104008,537,0,0
S,1277,5108008,543,0,0
S,1278,5112008,548,0,0
S,1279,5116008,553,0,0
S,1280,5120012,558,0,0
S,1281,5124008,564,0,0
S,1282,5128008,569,0,0
S,1283,5132008,574,0,0
S,1284,5136008,579,0,0
S,1285,5140008,584,0,0
S,1286,5144008,590,0,0
S,1287,5148008,595,0,0
S,1288,5152008,595,0,0
S,1289,5156008,590,0,0
S,1290,5160008,584,0,0
S,1291,5164008,579,0,0
S,1292,5168008,574,0,0
S,1293,5172008,569,0,0
S,1294,5176008,564,0,0
S,1295,5180008,558,0,0
S,1296,5184008,553,0,0
S,1297,5188008,548,0,0
S,1298,5192008,543,0,0
S,1299,5196008,537,0,0
S,1300,5200008,533,0,0
S,1301,5204008,528,0,0
S,1302,5208008,523,0,0
S,1303,5212008,517,0,0
S,1304,5216008,514,0,0
S,1305,5220008,514,0,0
S,1306,5224008,514,0,0
S,1307,5228008,514,0,0
S,1308,5232008,514,0,0
S,1309,5236008,514,0,0
S,1310,5240008,514,0,0
S,1311,5244008,514,0,0
S,1312,5248008,514,0,0
S,1313,5252008,514,0,0
S,1314,5256008,514,0,0
S,1315,5260012,514,0,0
S,1316,5264008,514,0,0
S,1317,5268008,514,0,0
S,1318,5272008,514,0,0
S,1319,5276008,514,0,0
S,1320,5280008,514,0,0
S,1321,5284008,514,0,0
S,1322,5288008,514,0,0
S,1323,5292008,514,0,0
S,1324,5296008,514,0,0
S,1325,5300008,515,0,0
S,1326,5304012,515,0,0
S,1327,5308008,515,0,0
S,1328,5312008,515,0,0
S,1329,5316008,515,0,0
S,1330,5320008,515,0,0
S,1331,5324008,515,0,0
S,1332,5328012,515,0,0
S,1333,5332008,515,0,0
S,1334,5336012,515,0,0
S,1335,5340008,515,0,0
S,1336,5344008,518,0,0
S,1337,5348008,522,0,0
S,1338,5352008,526,0,0
S,1339,5356008,529,0,0
S,1340,5360008,533,0,0
S,1341,5364008,537,0,0
S,1342,5368008,541,0,0
S,1343,5372008,541,0,0
S,1344,5376008,537,0,0
S,1345,5380012,533,0,0
S,1346,5384008,529,0,0
S,1347,5388008,526,0,0
S,1348,5392008,522,0,0
S,1349,5396008,518,0,0
S,1350,5400008,516,0,0
S,1351,5404008,516,0,0
S,1352,5408008,516,0,0
S,1353,5412008,516,0,0
S,1354,5416008,516,0,0
S,1355,5420008,516,0,0
S,1356,5424008,516,0,0
S,1357,5428008,516,0,0
S,1358,5432008,516,0,0
S,1359,5436008,516,0,0
S,1360,5440008,509,0,0
S,1361,5444008,494,0,0
S,1362,5448012,479,0,0
S,1363,5452008,479,0,0
S,1364,5456008,494,0,0
S,1365,5460008,509,0,0
S,1366,5464008,516,0,0
S,1367,5468008,516,0,0
S,1368,5472008,601,0,0
S,1369,5476008,686,0,0
S,1370,5480008,771,0,0
S,1371,5484008,686,0,0
S,1372,5488008,601,0,0
S,1373,5492008,516,0,0
S,1374,5496008,516,0,0
S,1375,5500008,501,0,0
S,1376,5504008,485,0,0
S,1377,5508008,469,0,0
S,1378,5512008,452,0,0
S,1379,5516012,469,0,0
S,1380,5520012,485,0,0
S,1381,5524008,501,0,0
S,1382,5528008,517,0,0
S,1383,5532008,517,0,0
S,1384,5536008,517,0,0
S,1385,5540008,517,0,0
S,1386,5544008,517,0,0
S,1387,5548012,517,0,0
S,1388,5552008,517,0,0
S,1389,5556008,517,0,0
S,1390,5560008,517,0,0
S,1391,5564008,517,0,0
S,1392,5568008,520,0,0
S,1393,5572012,526,0,0
S,1394,5576008,531,0,0
S,1395,5580008,536,0,0
S,1396,5584008,541,0,0
S,1397,5588008,547,0,0
S,1398,5592008,552,0,0
S,1399,5596008,557,0,0
S,1400,5600008,563,0,0
S,1401,5604008,569,0,0
S,1402,5608008,574,0,0
S,1403,5612008,579,0,0
S,1404,5616012,584,0,0
S,1405,5620008,589,0,0
S,1406,5624008,595,0,0
S,1407,5628008,600,0,0
S,1408,5632008,600,0,0
S,1409,5636008,595,0,0
S,1410,5640008,589,0,0
S,1411,5644008,584,0,0
S,1412,5648008,579,0,0
S,1413,5652008,574,0,0
S,1414,5656008,569,0,0
S,1415,5660008,563,0,0
S,1416,5664012,558,0,0
S,1417,5668008,553,0,0
S,1418,5672008,548,0,0
S,1419,5676008,542,0,0
S,1420,5680008,537,0,0
S,1421,5684008,532,0,0
S,1422,5688008,527,0,0
S,1423,5692008,521,0,0
S,1424,5696008,518,0,0
S,1425,5700008,519,0,0
S,1426,5704008,519,0,0
S,1427,5708008,519,0,0
S,1428,5712008,519,0,0
S,1429,5716012,519,0,0
S,1430,5720008,519,0,0
S,1431,5724008,519,0,0
S,1432,5728008,519,0,0
S,1433,5732008,519,0,0
S,1434,5736008,519,0,0
S,1435,5740008,519,0,0
S,1436,5744008,519,0,0
S,1437,5748008,519,0,0
S,1438,5752008,519,0,0
S,1439,5756008,519,0,0
S,1440,5760008,519,0,0
S,1441,5764008,519,0,0
S,1442,5768008,519,0,0
S,1443,5772008,519,0,0
S,1444,5776008,519,0,0
S,1445,5780008,519,0,0
S,1446,5784012,519,0,0
S,1447,5788008,519,0,0
S,1448,5792008,519,0,0
S,1449,5796012,519,0,0
S,1450,5800008,520,0,0
S,1451,5804008,520,0,0
S,1452,5808008,520,0,0
S,1453,5812008,520,0,0
S,1454,5816012,520,0,0
S,1455,5820008,520,0,0
S,1456,5824008,523,0,0
S,1457,5828008,527,0,0
S,1458,5832008,531,0,0
S,1459,5836008,534,0,0
S,1460,5840008,538,0,0
S,1461,5844008,542,0,0
S,1462,5848008,546,0,0
S,1463,5852008,546,0,0
S,1464,5856012,542,0,0
S,1465,5860008,538,0,0
S,1466,5864008,534,0,0
S,1467,5868008,531,0,0
S,1468,5872008,527,0,0
S,1469,5876008,523,0,0
S,1470,5880008,520,0,0
S,1471,5884008,520,0,0
S,1472,5888008,520,0,0
S,1473,5892008,520,0,0
S,1474,5896008,520,0,0
S,1475,5900008,521,0,0
S,1476,5904008,521,0,0
S,1477,5908008,521,0,0
S,1478,5912008,521,0,0
S,1479,5916008,521,0,0
S,1480,5920008,514,0,0
S,1481,5924008,499,0,0
S,1482,5928008,484,0,0
S,1483,5932008,484,0,0
S,1484,5936008,499,0,0
S,1485,5940008,514,0,0
S,1486,5944008,521,0,0
S,1487,5948008,521,0,0
S,1488,5952008,606,0,0
S,1489,5956008,691,0,0
S,1490,5960008,776,0,0
S,1491,5964008,691,0,0
S,1492,5968008,606,0,0
S,1493,5972008,521,0,0
S,1494,5976008,521,0,0
S,1495,5980008,505,0,0
S,1496,5984008,489,0,0
S,1497,5988008,473,0,0
S,1498,5992008,456,0,0
S,1499,5996008,473,0,0
S,1500,6000008,490,0,0
S,1501,6004008,506,0,0
S,1502,6008008,522,0,0
S,1503,6012008,522,0,0
S,1504,6016008,522,0,0
S,1505,6020008,522,0,0
S,1506,6024008,522,0,0
S,1507,6028008,522,0,0
S,1508,6032008,522,0,0
S,1509,6036008,522,0,0
S,1510,6040008,522,0,0
S,1511,6044008,522,0,0
S,1512,6048012,525,0,0
S,1513,6052008,531,0,0
S,1514,6056008,536,0,0
S,1515,6060008,541,0,0
S,1516,6064008,546,0,0
S,1517,6068008,552,0,0
S,1518,6072008,557,0,0
S,1519,6076008,562,0,0
S,1520,6080008,567,0,0
S,1521,6084008,573,0,0
S,1522,6088008,578,0,0
S,1523,6092008,583,0,0
S,1524,6096008,588,0,0
S,1525,6100008,592,0,0
S,1526,6104008,598,0,0
S,1527,6108012,603,0,0
S,1528,6112008,603,0,0
S,1529,6116008,598,0,0
S,1530,6120008,592,0,0
S,1531,6124008,587,0,0
S,1532,6128008,582,0,0
S,1533,6132008,577,0,0
S,1534,6136008,572,0,0
S,1535,6140008,566,0,0
S,1536,6144008,561,0,0
S,1537,6148008,556,0,0
S,1538,6152008,551,0,0
S,1539,6156012,545,0,0
S,1540,6160008,540,0,0
S,1541,6164008,535,0,0
S,1542,6168008,530,0,0
S,1543,6172008,524,0,0
S,1544,6176008,521,0,0
S,1545,6180008,521,0,0
S,1546,6184008,521,0,0
S,1547,6188008,521,0,0
S,1548,6192008,521,0,0
S,1549,6196008,521,0,0
S,1550,6200008,520,0,0
S,1551,6204008,520,0,0
S,1552,6208008,520,0,0
S,1553,6212008,520,0,0
S,1554,6216008,520,0,0
S,1555,6220008,520,0,0
S,1556,6224008,520,0,0
S,1557,6228008,520,0,0
S,1558,6232008,520,0,0
S,1559,6236008,520,0,0
S,1560,6240008,520,0,0
S,1561,6244008,520,0,0
S,1562,6248008,520,0,0
S,1563,6252012,520,0,0
S,1564,6256008,520,0,0
S,1565,6260008,520,0,0
S,1566,6264008,520,0,0
S,1567,6268008,520,0,0
S,1568,6272008,520,0,0
S,1569,6276012,520,0,0
S,1570,6280008,520,0,0
S,1571,6284008,520,0,0
S,1572,6288012,520,0,0
S,1573,6292008,520,0,0
S,1574,6296008,520,0,0
S,1575,6300008,519,0,0
S,1576,6304008,522,0,0
S,1577,6308008,526,0,0
S,1578,6312008,530,0,0
S,1579,6316008,533,0,0
S,1580,6320012,537,0,0
S,1581,6324008,541,0,0
S,1582,6328008,545,0,0
S,1583,6332012,545,0,0
S,1584,6336008,541,0,0
S,1585,6340008,537,0,0
S,1586,6344008,533,0,0
