S,0,24,566,0,0,558
S,1,4020,467,0,0,3686
S,2,8020,398,0,0,7896
S,3,12020,372,0,0,12163
S,4,16020,368,0,0,16352
S,5,20024,363,0,0,20310
S,6,24020,352,0,0,23730
S,7,28020,334,0,0,27709
S,8,32020,323,0,0,31839
S,9,36020,326,0,0,36347
S,10,40020,333,0,0,40211
S,11,44020,324,0,0,43707
S,12,48020,303,0,0,47799
S,13,52024,294,0,0,51731
S,14,56020,295,0,0,56317
S,15,60024,305,0,0,60230
S,16,64024,322,0,0,64330
S,17,68020,335,0,0,2283
S,18,72020,339,0,0,6164
S,19,76020,336,0,0,10678
S,20,80020,331,0,0,14794
S,21,84020,329,0,0,18793
S,22,88020,336,0,0,22163
S,23,92020,348,0,0,26174
S,24,96020,352,0,0,30317
S,25,100020,352,0,0,34764
S,26,104024,348,0,0,38687
S,27,108020,344,0,0,42166
S,28,112024,350,0,0,46299
S,29,116020,357,0,0,50253
S,30,120020,361,0,0,54690
S,31,124020,355,0,0,58633
S,32,128020,346,0,0,62831
S,33,132020,335,0,0,728
S,34,136020,333,0,0,4665
S,35,140020,338,0,0,9095
S,36,144020,340,0,0,13286
S,37,148020,336,0,0,17219
S,38,152024,332,0,0,20656
S,39,156020,334,0,0,24607
S,40,160020,346,0,0,28772
S,41,164024,361,0,0,33274
S,42,168020,361,0,0,37141
S,43,172024,348,0,0,40589
S,44,176020,340,0,0,44782
S,45,180020,361,0,0,48754
S,46,184024,398,0,0,53114
S,47,188020,394,0,0,57299
S,48,192020,344,0,0,61310
S,49,196020,301,0,0,64682
S,50,200020,305,0,0,3156
S,51,204020,329,0,0,7565
S,52,208024,332,0,0,11747
S,53,212020,308,0,0,15670
S,54,216020,296,0,0,19145
S,55,220020,304,0,0,23152
S,56,224020,320,0,0,27247
S,57,228020,329,0,0,31687
S,58,232020,329,0,0,35620
S,59,236020,331,0,0,39047
S,60,240020,339,0,0,43256
S,61,244020,351,0,0,47189
S,62,248020,357,0,0,51596
S,63,252020,341,0,0,55581
S,64,256020,310,0,0,59745
S,65,260024,282,0,0,63200
S,66,264020,276,0,0,1542
S,67,268020,289,0,0,6034
S,68,272020,303,0,0,10235
S,69,276020,308,0,0,14145
S,70,280020,305,0,0,17575
S,71,284020,288,0,0,21527
S,72,288020,305,0,0,25705
S,73,292020,325,0,0,30140
S,74,296020,337,0,0,34123
S,75,300020,347,0,0,37600
S,76,304020,353,0,0,41661
S,77,308020,343,0,0,45610
S,78,312020,318,0,0,50080
S,79,316020,292,0,0,54043
S,80,320020,294,0,0,58214
S,81,324020,342,0,0,61623
S,82,328020,369,0,0,114
S,83,332020,326,0,0,4580
S,84,336020,255,0,0,8250
S,85,340024,227,0,0,12427
S,86,344020,255,0,0,16248
S,87,348024,304,0,0,19994
S,88,352020,320,0,0,24073
S,89,356020,296,0,0,28608
S,90,360020,275,0,0,32536
S,91,364024,274,0,0,36020
S,92,368020,286,0,0,40147
S,93,372020,295,0,0,44107
S,94,376020,302,0,0,48545
S,95,380020,308,0,0,52506
S,96,384020,301,0,0,56668
S,97,388024,278,0,0,60106
S,98,392020,261,0,0,64054
S,99,396020,266,0,0,2971
S,100,400020,285,0,0,7147
S,101,404024,304,0,0,11115
S,102,408020,298,0,0,14494
S,103,412020,272,0,0,18437
S,104,416024,253,0,0,22923
S,105,420020,258,0,0,27097
S,106,424020,288,0,0,31000
S,107,428020,313,0,0,34464
S,108,432020,299,0,0,38613
S,109,436020,259,0,0,42588
S,110,440020,239,0,0,46675
S,111,444020,251,0,0,50918
S,112,448020,275,0,0,55153
S,113,452020,284,0,0,58591
S,114,456020,276,0,0,62516
S,115,460020,266,0,0,1418
S,116,464024,265,0,0,5602
S,117,468024,272,0,0,9562
S,118,472020,297,0,0,12940
S,119,476020,319,0,0,16955
S,120,480020,306,0,0,21081
S,121,484020,268,0,0,25542
S,122,488020,249,0,0,29392
S,123,492020,256,0,0,32904
S,124,496024,272,0,0,37107
S,125,500020,300,0,0,41058
S,126,504020,320,0,0,45549
S,127,508020,317,0,0,49457
S,128,512020,289,0,0,53682
S,129,516020,276,0,0,56870
S,130,520020,298,0,0,61179
S,131,524020,316,0,0,65356
S,132,528020,300,0,0,3892
S,133,532024,263,0,0,8114
S,134,536020,239,0,0,11701
S,135,540020,243,0,0,15624
S,136,544020,261,0,0,19601
S,137,548020,275,0,0,23846
S,138,552020,279,0,0,28097
S,139,556020,270,0,0,31353
S,140,560024,254,0,0,35810
S,141,564020,244,0,0,39749
S,142,568020,244,0,0,43686
S,143,572020,247,0,0,47620
S,144,576020,251,0,0,51831
S,145,580020,255,0,0,55762
S,146,584020,258,0,0,59596
S,147,588020,259,0,0,63852
S,148,592020,253,0,0,2292
S,149,596020,242,0,0,6234
S,150,600020,242,0,0,10169
S,151,604020,256,0,0,14058
S,152,608020,285,0,0,18072
S,153,612020,318,0,0,22298
S,154,616024,353,0,0,26538
S,155,620020,408,0,0,29950
S,156,624020,477,0,0,34012
S,157,628020,555,0,0,38795
S,158,632020,636,0,0,42559
S,159,636020,679,0,0,46661
S,160,640020,667,0,0,50726
S,161,644020,594,0,0,53582
S,162,648020,488,0,0,57879
S,163,652020,389,0,0,62427
S,164,656020,325,0,0,895
S,165,660020,291,0,0,5048
S,166,664020,267,0,0,8307
S,167,668020,243,0,0,12586
S,168,672020,230,0,0,16720
S,169,676020,239,0,0,20728
S,170,680020,244,0,0,24576
S,171,684020,234,0,0,28607
S,172,688020,217,0,0,32747
S,173,692020,207,0,0,36700
S,174,696020,201,0,0,40633
S,175,700020,212,0,0,44549
S,176,704020,234,0,0,48708
S,177,708020,238,0,0,52705
S,178,712020,214,0,0,56634
S,179,716020,193,0,0,60556
S,180,720024,193,0,0,64743
S,181,724020,205,0,0,3143
S,182,728020,218,0,0,7091
S,183,732020,225,0,0,11049
S,184,736020,222,0,0,15225
S,185,740020,221,0,0,19163
S,186,744020,224,0,0,23045
S,187,748020,226,0,0,27046
S,188,752020,224,0,0,31171
S,189,756020,226,0,0,35168
S,190,760020,228,0,0,39045
S,191,764024,229,0,0,43049
S,192,768020,229,0,0,47162
S,193,772020,227,0,0,51101
S,194,776024,225,0,0,55152
S,195,780020,228,0,0,59096
S,196,784020,234,0,0,63153
S,197,788020,238,0,0,1555
S,198,792020,237,0,0,5619
S,199,796020,232,0,0,9559
S,200,800020,231,0,0,13623
S,201,804020,235,0,0,17562
S,202,808020,239,0,0,21629
S,203,812020,241,0,0,25538
S,204,816024,240,0,0,29608
S,205,820020,237,0,0,33560
S,206,824020,239,0,0,37625
S,207,828020,244,0,0,41539
S,208,832020,244,0,0,45628
S,209,836024,243,0,0,49558
S,210,840020,241,0,0,53627
S,211,844020,240,0,0,57563
S,212,848020,237,0,0,61601
S,213,852020,231,0,0,11
S,214,856020,230,0,0,4073
S,215,860020,234,0,0,8004
S,216,864020,244,0,0,12085
S,217,868020,251,0,0,16027
S,218,872020,250,0,0,20089
S,219,876020,248,0,0,24026
S,220,880020,247,0,0,28082
S,221,884020,247,0,0,32019
S,222,888020,248,0,0,36095
S,223,892020,246,0,0,40016
S,224,896020,243,0,0,44042
S,225,900020,245,0,0,48045
S,226,904020,246,0,0,52045
S,227,908020,247,0,0,56045
S,228,912020,247,0,0,60042
S,229,916020,245,0,0,64041
S,230,920020,245,0,0,2505
S,231,924020,246,0,0,6507
S,232,928020,246,0,0,10500
S,233,932020,242,0,0,14497
S,234,936020,243,0,0,18499
S,235,940020,247,0,0,22502
S,236,944020,252,0,0,26506
S,237,948020,252,0,0,30507
S,238,952020,248,0,0,34508
S,239,956020,247,0,0,38498
S,240,960020,250,0,0,42512
S,241,964020,253,0,0,46518
S,242,968020,257,0,0,50345
S,243,972020,256,0,0,54537
S,244,976020,253,0,0,58515
S,245,980020,253,0,0,62514
S,246,984020,258,0,0,559
S,247,988020,258,0,0,4750
S,248,992020,253,0,0,8990
S,249,996020,250,0,0,12984
S,250,1000020,254,0,0,16991
S,251,1004020,260,0,0,20484
S,252,1008020,261,0,0,24674
S,253,1012020,260,0,0,28866
S,254,1016020,254,0,0,32987
S,255,1020020,254,0,0,36986
S,256,1024020,255,0,0,41444
S,257,1028020,254,0,0,44612
S,258,1032020,252,0,0,48805
S,259,1036020,252,0,0,52996
S,260,1040020,257,0,0,56990
S,261,1044020,260,0,0,60986
S,262,1048020,256,0,0,64989
S,263,1052020,251,0,0,3224
S,264,1056020,249,0,0,7413
S,265,1060020,252,0,0,11601
S,266,1064020,258,0,0,15436
S,267,1068020,261,0,0,19434
S,268,1072020,261,0,0,23437
S,269,1076020,259,0,0,27434
S,270,1080020,257,0,0,31435
S,271,1084020,261,0,0,35438
S,272,1088020,263,0,0,39443
S,273,1092020,265,0,0,43452
S,274,1096020,269,0,0,47451
S,275,1100020,269,0,0,51450
S,276,1104020,263,0,0,55447
S,277,1108020,256,0,0,59441
S,278,1112020,254,0,0,63020
S,279,1116020,261,0,0,1911
S,280,1120020,274,0,0,5903
S,281,1124020,282,0,0,9894
S,282,1128020,278,0,0,13897
S,283,1132020,273,0,0,17903
S,284,1136020,270,0,0,21911
S,285,1140020,275,0,0,25899
S,286,1144020,282,0,0,29889
S,287,1148020,287,0,0,33893
S,288,1152020,292,0,0,37889
S,289,1156020,295,0,0,41891
S,290,1160020,295,0,0,45888
S,291,1164020,290,0,0,49892
S,292,1168020,285,0,0,53948
S,293,1172020,278,0,0,57878
S,294,1176024,282,0,0,61941
S,295,1180020,300,0,0,365
S,296,1184020,308,0,0,4378
S,297,1188020,294,0,0,8361
S,298,1192020,265,0,0,12389
S,299,1196020,246,0,0,15931
S,300,1200020,255,0,0,20053
S,301,1204024,273,0,0,24342
S,302,1208020,274,0,0,28410
S,303,1212024,254,0,0,32699
S,304,1216024,238,0,0,36820
S,305,1220020,241,0,0,40038
S,306,1224024,252,0,0,44164
S,307,1228020,259,0,0,48342
S,308,1232020,264,0,0,52410
S,309,1236020,266,0,0,56345
S,310,1240020,268,0,0,60412
S,311,1244024,268,0,0,64337
S,312,1248020,267,0,0,2868
S,313,1252020,280,0,0,6790
S,314,1256020,315,0,0,10822
S,315,1260024,368,0,0,14752
S,316,1264020,427,0,0,18704
S,317,1268020,490,0,0,23024
S,318,1272020,556,0,0,27605
S,319,1276020,627,0,0,31531
S,320,1280020,676,0,0,35811
S,321,1284020,675,0,0,37957
S,322,1288020,618,0,0,42095
S,323,1292020,521,0,0,46509
S,324,1296020,426,0,0,50793
S,325,1300020,359,0,0,54789
S,326,1304024,319,0,0,58802
S,327,1308020,299,0,0,62731
S,328,1312024,288,0,0,1380
S,329,1316020,280,0,0,5361
S,330,1320020,271,0,0,9221
S,331,1324020,258,0,0,13225
S,332,1328020,248,0,0,16948
S,333,1332020,244,0,0,21145
S,334,1336020,246,0,0,25464
S,335,1340020,253,0,0,29650
S,336,1344020,255,0,0,33711
S,337,1348020,254,0,0,36879
S,338,1352020,252,0,0,41198
S,339,1356020,252,0,0,45391
S,340,1360024,257,0,0,49369
S,341,1364020,260,0,0,53361
S,342,1368020,259,0,0,57237
S,343,1372020,255,0,0,61128
S,344,1376020,254,0,0,65190
S,345,1380020,260,0,0,3836
S,346,1384020,266,0,0,7697
S,347,1388020,266,0,0,11696
S,348,1392020,263,0,0,15834
S,349,1396024,264,0,0,19832
S,350,1400020,268,0,0,23699
S,351,1404024,274,0,0,27680
S,352,1408020,275,0,0,31858
S,353,1412020,273,0,0,35793
S,354,1416024,273,0,0,39742
S,355,1420020,276,0,0,43670
S,356,1424024,278,0,0,47871
S,357,1428020,281,0,0,51805
S,358,1432024,281,0,0,55730
S,359,1436020,281,0,0,59679
S,360,1440024,285,0,0,63864
S,361,1444020,288,0,0,2283
S,362,1448020,288,0,0,6152
S,363,1452020,286,0,0,10135
S,364,1456020,285,0,0,14323
S,365,1460020,289,0,0,18286
S,366,1464020,292,0,0,22152
S,367,1468020,291,0,0,26158
S,368,1472020,287,0,0,30317
S,369,1476024,289,0,0,34302
S,370,1480020,294,0,0,38166
S,371,1484020,296,0,0,42169
S,372,1488020,294,0,0,46288
S,373,1492024,289,0,0,50298
S,374,1496024,285,0,0,54181
S,375,1500024,287,0,0,58118
S,376,1504020,291,0,0,62297
S,377,1508024,289,0,0,759
S,378,1512020,286,0,0,4647
S,379,1516020,285,0,0,8581
S,380,1520020,287,0,0,12768
S,381,1524024,289,0,0,16755
S,382,1528020,289,0,0,20636
S,383,1532020,285,0,0,24577
S,384,1536020,282,0,0,28825
S,385,1540020,284,0,0,32574
S,386,1544020,285,0,0,36828
S,387,1548020,282,0,0,40570
S,388,1552024,280,0,0,44563
S,389,1556020,282,0,0,48828
S,390,1560020,287,0,0,52570
S,391,1564020,289,0,0,56773
S,392,1568024,285,0,0,60826
S,393,1572020,280,0,0,64562
S,394,1576020,281,0,0,3295
S,395,1580020,285,0,0,7034
S,396,1584024,287,0,0,11027
S,397,1588024,287,0,0,15282
S,398,1592024,286,0,0,19024
S,399,1596020,287,0,0,23292
S,400,1600020,292,0,0,27320
S,401,1604020,296,0,0,30997
S,402,1608020,295,0,0,35321
S,403,1612020,293,0,0,39002
S,404,1616024,292,0,0,43056
S,405,1620024,294,0,0,47251
S,406,1624024,297,0,0,51071
S,407,1628020,296,0,0,55251
S,408,1632024,291,0,0,59323
S,409,1636020,290,0,0,62999
S,410,1640020,295,0,0,1776
S,411,1644024,297,0,0,5459
S,412,1648020,294,0,0,9527
S,413,1652020,291,0,0,13715
S,414,1656020,290,0,0,17521
S,415,1660024,293,0,0,21723
S,416,1664024,295,0,0,25734
S,417,1668020,291,0,0,29487
S,418,1672020,288,0,0,33743
S,419,1676020,286,0,0,37456
S,420,1680020,288,0,0,41481
S,421,1684020,288,0,0,45736
S,422,1688020,283,0,0,49520
S,423,1692020,277,0,0,53727
S,424,1696020,277,0,0,57776
S,425,1700020,282,0,0,61470
S,426,1704020,284,0,0,248
S,427,1708020,282,0,0,3935
S,428,1712020,279,0,0,7989
S,429,1716020,276,0,0,12183
S,430,1720020,278,0,0,15990
S,431,1724020,280,0,0,20185
S,432,1728020,278,0,0,24232
S,433,1732020,274,0,0,27917
S,434,1736020,272,0,0,32236
S,435,1740020,275,0,0,35918
S,436,1744020,279,0,0,39981
S,437,1748020,278,0,0,44173
S,438,1752020,275,0,0,47979
S,439,1756020,275,0,0,52170
S,440,1760024,278,0,0,56236
S,441,1764020,283,0,0,59916
S,442,1768024,284,0,0,64228
S,443,1772020,283,0,0,2383
S,444,1776020,284,0,0,6447
S,445,1780020,287,0,0,10637
S,446,1784020,288,0,0,14417
S,447,1788020,285,0,0,18637
S,448,1792020,283,0,0,22740
S,449,1796020,287,0,0,26481
S,450,1800020,295,0,0,30634
S,451,1804020,295,0,0,34315
S,452,1808024,285,0,0,38490
S,453,1812020,275,0,0,42745
S,454,1816020,271,0,0,46342
S,455,1820024,276,0,0,50608
S,456,1824024,278,0,0,54749
S,457,1828020,271,0,0,58473
S,458,1832020,262,0,0,62595
S,459,1836024,257,0,0,814
S,460,1840020,255,0,0,4795
S,461,1844020,252,0,0,8729
S,462,1848020,248,0,0,13310
S,463,1852020,244,0,0,17235
S,464,1856020,242,0,0,21290
S,465,1860020,241,0,0,24712
S,466,1864024,238,0,0,28792
S,467,1868024,233,0,0,33246
S,468,1872020,227,0,0,37311
S,469,1876020,225,0,0,41244
S,470,1880020,226,0,0,44796
S,471,1884020,227,0,0,48732
S,472,1888020,222,0,0,52750
S,473,1892020,213,0,0,57252
S,474,1896020,213,0,0,61255
S,475,1900020,231,0,0,64724
S,476,1904020,265,0,0,3420
S,477,1908020,310,0,0,7618
S,478,1912020,365,0,0,11386
S,479,1916020,429,0,0,15387
S,480,1920020,503,0,0,19486
S,481,1924020,576,0,0,22536
S,482,1928020,609,0,0,26826
S,483,1932020,578,0,0,31048
S,484,1936020,491,0,0,35462
S,485,1940020,386,0,0,39502
S,486,1944024,301,0,0,43278
S,487,1948020,249,0,0,47223
S,488,1952024,225,0,0,51212
S,489,1956020,208,0,0,55696
S,490,1960020,192,0,0,59747
S,491,1964024,178,0,0,63164
S,492,1968020,169,0,0,1743
S,493,1972020,160,0,0,5735
S,494,1976020,154,0,0,10174
S,495,1980020,152,0,0,14109
S,496,1984020,150,0,0,18284
S,497,1988020,144,0,0,21707
S,498,1992020,138,0,0,25650
S,499,1996020,137,0,0,30096
S,500,2000024,138,0,0,34296
S,501,2004024,138,0,0,38233
S,502,2008020,133,0,0,41657
S,503,2012020,127,0,0,45794
S,504,2016020,126,0,0,49804
S,505,2020020,128,0,0,54227
S,506,2024020,127,0,0,58319
S,507,2028020,123,0,0,61546
S,508,2032024,120,0,0,3
S,509,2036020,117,0,0,4259
S,510,2040020,116,0,0,8513
S,511,2044024,115,0,0,12779
S,512,2048020,112,0,0,17019
S,513,2052020,109,0,0,19911
S,514,2056020,107,0,0,23842
S,515,2060020,105,0,0,27777
S,516,2064020,105,0,0,31974
S,517,2068020,103,0,0,35913
S,518,2072020,99,0,0,40878
S,519,2076020,97,0,0,44813
S,520,2080020,99,0,0,48992
S,521,2084020,99,0,0,52929
S,522,2088020,96,0,0,56865
S,523,2092020,93,0,0,59837
S,524,2096020,91,0,0,63964
S,525,2100020,92,0,0,2373
S,526,2104020,91,0,0,6305
S,527,2108020,88,0,0,10243
S,528,2112020,82,0,0,14454
S,529,2116020,81,0,0,19412
S,530,2120020,81,0,0,23351
S,531,2124020,79,0,0,27272
S,532,2128020,74,0,0,31466
S,533,2132024,69,0,0,35400
S,534,2136020,66,0,0,38304
S,535,2140020,64,0,0,42243
S,536,2144020,61,0,0,46353
S,537,2148020,57,0,0,50356
S,538,2152020,51,0,0,54365
S,539,2156020,48,0,0,59391
S,540,2160020,45,0,0,63365
S,541,2164020,43,0,0,1827
S,542,2168020,39,0,0,5836
S,543,2172020,33,0,0,9835
S,544,2176020,29,0,0,13832
S,545,2180020,27,0,0,16815
S,546,2184020,23,0,0,20800
S,547,2188020,17,0,0,24807
S,548,2192020,12,0,0,28829
S,549,2196020,9,0,0,32825
S,550,2200020,6,0,0,37845
S,551,2204020,4,0,0,41846
S,552,2208020,0,0,0,45853
S,553,2212020,0,0,0,49852
S,554,2216020,0,0,0,53855
S,555,2220020,0,0,0,56830
S,556,2224020,0,0,0,60825
S,557,2228020,0,0,0,64824
S,558,2232020,0,0,0,3288
S,559,2236024,0,0,0,7285
S,560,2240020,0,0,0,11270
S,561,2244024,0,0,0,16299
S,562,2248020,0,0,0,20292
S,563,2252020,0,0,0,24293
S,564,2256020,0,0,0,28290
S,565,2260020,0,0,0,32291
S,566,2264020,0,0,0,35264
S,567,2268020,0,0,0,39265
S,568,2272020,0,0,0,43278
S,569,2276020,0,0,0,47279
S,570,2280020,0,0,0,51276
S,571,2284020,0,0,0,56301
S,572,2288020,0,0,0,60298
S,573,2292020,0,0,0,64299
S,574,2296020,0,0,0,2761
S,575,2300020,0,0,0,6760
S,576,2304020,0,0,0,10871
S,577,2308020,0,0,0,13782
S,578,2312020,0,0,0,17717
S,579,2316020,0,0,0,21652
S,580,2320020,0,0,0,25843
S,581,2324020,0,0,0,29778
S,582,2328020,0,0,0,34737
S,583,2332020,0,0,0,38672
S,584,2336020,0,0,0,42879
S,585,2340020,0,0,0,46814
S,586,2344020,0,0,0,50749
S,587,2348020,0,0,0,53660
S,588,2352020,0,0,0,57851
S,589,2356020,0,0,0,61786
S,590,2360020,0,0,0,190
S,591,2364020,0,0,0,4127
S,592,2368020,0,0,0,8288
S,593,2372020,0,0,0,13249
S,594,2376020,0,0,0,17186
S,595,2380020,0,0,0,21123
S,596,2384020,0,0,0,25316
S,597,2388020,0,0,0,29253
S,598,2392020,0,0,0,32166
S,599,2396020,0,0,0,36103
S,600,2400020,0,0,0,40296
S,601,2404020,0,0,0,44233
S,602,2408020,0,0,0,48170
S,603,2412020,0,0,0,53131
S,604,2416020,0,0,0,57324
S,605,2420020,0,0,0,61261
S,606,2424020,0,0,0,65198
S,607,2428020,0,0,0,3598
S,608,2432020,0,0,0,7761
S,609,2436020,0,0,0,10736
S,610,2440020,0,0,0,14611
S,611,2444020,0,0,0,18610
S,612,2448020,0,0,0,22741
S,613,2452020,0,0,0,26740
S,614,2456020,0,0,0,31639
S,615,2460020,0,0,0,35638
S,616,2464020,0,0,0,39769
S,617,2468020,0,0,0,43768
S,618,2472020,0,0,0,47643
S,619,2476020,0,0,0,50618
S,620,2480020,0,0,0,54749
S,621,2484020,0,0,0,58748
S,622,2488020,0,0,0,62623
S,623,2492020,0,0,0,1085
S,624,2496024,0,0,0,5198
S,625,2500020,0,0,0,10211
S,626,2504020,0,0,0,14080
S,627,2508020,0,0,0,18081
S,628,2512020,0,0,0,22214
S,629,2516020,0,0,0,26215
S,630,2520020,0,0,0,29060
S,631,2524020,0,0,0,33061
S,632,2528020,0,0,0,37194
S,633,2532020,0,0,0,41195
S,634,2536020,0,0,0,45064
S,635,2540020,0,0,0,50089
S,636,2544020,0,0,0,54222
S,637,2548020,0,0,0,58223
S,638,2552020,0,0,0,62092
S,639,2556024,0,0,0,544
S,640,2560020,0,0,0,4787
S,641,2564020,0,0,0,7442
S,642,2568020,0,0,0,11761
S,643,2572020,0,0,0,15440
S,644,2576024,0,0,0,19515
S,645,2580020,0,0,0,23702
S,646,2584020,0,0,0,28533
S,647,2588020,0,0,0,32724
S,648,2592020,113,0,0,36810
S,649,2596020,247,0,0,40685
S,650,2600020,285,0,0,45028
S,651,2604020,222,0,0,47494
S,652,2608024,108,0,0,51551
S,653,2612020,4,0,0,55706
S,654,2616020,0,0,0,59517
S,655,2620020,0,0,0,63708
S,656,2624020,0,0,0,2220
S,657,2628020,0,0,0,6925
S,658,2632020,0,0,0,11246
S,659,2636020,0,0,0,14927
S,660,2640020,0,0,0,18984
S,661,2644020,0,0,0,23177
S,662,2648020,0,0,0,25962
S,663,2652020,0,0,0,30155
S,664,2656020,0,0,0,34212
S,665,2660020,0,0,0,37893
S,666,2664020,0,0,0,42214
S,667,2668024,0,0,0,46923
S,668,2672020,0,0,0,50976
S,669,2676020,0,0,0,55169
S,670,2680020,0,0,0,58978
S,671,2684020,0,0,0,63171
S,672,2688020,0,0,0,1693
S,673,2692020,0,0,0,4412
S,674,2696020,0,0,0,8671
S,675,2700020,0,0,0,12414
S,676,2704020,0,0,0,16409
S,677,2708020,0,0,0,20664
S,678,2712024,0,0,0,25431
S,679,2716020,0,0,0,29690
S,680,2720020,0,0,0,33685
S,681,2724020,0,0,0,37428
S,682,2728020,0,0,0,41687
S,683,2732020,0,0,0,44406
S,684,2736020,0,0,0,48401
S,685,2740020,0,0,0,52656
S,686,2744020,0,0,0,56403
S,687,2748020,0,0,0,60658
S,688,2752020,0,0,0,64653
S,689,2756020,0,0,0,3887
S,690,2760020,0,0,0,8140
S,691,2764020,0,0,0,11885
S,692,2768020,0,0,0,15882
S,693,2772020,0,0,0,20139
S,694,2776020,0,0,0,22856
S,695,2780020,0,0,0,27113
S,696,2784020,0,0,0,31110
S,697,2788020,0,0,0,34855
S,698,2792020,0,0,0,39108
S,699,2796020,0,0,0,43877
S,700,2800020,0,0,0,47874
S,701,2804020,0,0,0,52131
S,702,2808020,0,0,0,55872
S,703,2812020,0,0,0,60129
S,704,2816024,0,0,0,64242
S,705,2820020,0,0,0,1374
S,706,2824020,0,0,0,5565
S,707,2828024,0,0,0,9232
S,708,2832020,0,0,0,13435
S,709,2836020,0,0,0,17626
S,710,2840020,0,0,0,22329
S,711,2844020,0,0,0,26520
S,712,2848020,0,0,0,30711
S,713,2852020,0,0,0,34390
S,714,2856020,0,0,0,38581
S,715,2860020,0,0,0,41236
S,716,2864020,0,0,0,45427
S,717,2868020,0,0,0,49618
S,718,2872020,0,0,0,53297
S,719,2876020,0,0,0,57488
S,720,2880020,0,0,0,61679
S,721,2884024,0,0,0,837
S,722,2888020,0,0,0,5034
S,723,2892020,0,0,0,8715
S,724,2896024,0,0,0,12896
S,725,2900020,0,0,0,17101
S,726,2904020,0,0,0,19758
S,727,2908020,0,0,0,23951
S,728,2912020,0,0,0,28128
S,729,2916020,0,0,0,31809
S,730,2920020,0,0,0,36002
S,731,2924024,0,0,0,40719
S,732,2928020,0,0,0,44900
S,733,2932020,0,0,0,49093
S,734,2936020,0,0,0,52774
S,735,2940020,0,0,0,56967
S,736,2944020,0,0,0,61144
S,737,2948020,0,0,0,63865
S,738,2952020,0,0,0,2459
S,739,2956020,0,0,0,6202
S,740,2960020,0,0,0,10333
S,741,2964024,0,0,0,14576
S,742,2968020,0,0,0,19231
S,743,2972020,0,0,0,23486
S,744,2976020,0,0,0,27601
S,745,2980024,0,0,0,31356
S,746,2984020,0,0,0,35475
S,747,2988020,0,0,0,38194
S,748,2992020,0,0,0,42325
S,749,2996020,0,0,0,46580
S,750,3000020,0,0,0,50199
S,751,3004020,0,0,0,54454
S,752,3008020,0,0,0,58569
S,753,3012020,0,0,0,63336
S,754,3016020,0,0,0,1928
S,755,3020024,0,0,0,5669
S,756,3024020,0,0,0,9806
S,757,3028020,0,0,0,14063
S,758,3032020,0,0,0,16652
S,759,3036020,0,0,0,20909
S,760,3040020,0,0,0,25026
S,761,3044020,0,0,0,28771
S,762,3048020,0,0,0,32896
S,763,3052020,0,0,0,37665
S,764,3056020,0,0,0,41798
S,765,3060020,0,0,0,46055
S,766,3064020,0,0,0,49668
S,767,3068024,0,0,0,53929
S,768,3072020,0,0,0,58170
S,769,3076020,0,0,0,60571
S,770,3080020,0,0,0,64632
S,771,3084020,0,0,0,3544
S,772,3088020,0,0,0,7615
S,773,3092020,0,0,0,11550
S,774,3096020,0,0,0,16125
S,775,3100020,9,0,0,20053
S,776,3104020,23,0,0,24100
S,777,3108020,31,0,0,28557
S,778,3112020,34,0,0,32595
S,779,3116024,38,0,0,35066
S,780,3120024,43,0,0,39056
S,781,3124020,49,0,0,43047
S,782,3128020,52,0,0,47553
S,783,3132024,55,0,0,51567
S,784,3136024,63,0,0,55576
S,785,3140020,72,0,0,60098
S,786,3144024,81,0,0,64052
S,787,3148020,88,0,0,2959
S,788,3152020,94,0,0,7150
S,789,3156024,98,0,0,11135
S,790,3160024,102,0,0,13464
S,791,3164024,108,0,0,17459
S,792,3168020,114,0,0,21582
S,793,3172020,124,0,0,26081
S,794,3176020,131,0,0,30205
S,795,3180020,132,0,0,34395
S,796,3184020,129,0,0,38457
S,797,3188024,129,0,0,42644
S,798,3192024,130,0,0,46964
S,799,3196020,136,0,0,51155
S,800,3200020,139,0,0,55183
S,801,3204020,141,0,0,57384
S,802,3208020,142,0,0,61640
S,803,3212020,143,0,0,361
S,804,3216020,146,0,0,4371
S,805,3220020,150,0,0,8630
S,806,3224020,153,0,0,12890
S,807,3228020,153,0,0,17147
S,808,3232020,154,0,0,21143
S,809,3236020,157,0,0,25393
S,810,3240020,162,0,0,29677
S,811,3244020,166,0,0,31816
S,812,3248020,167,0,0,35886
S,813,3252020,171,0,0,40067
S,814,3256024,178,0,0,44405
S,815,3260024,185,0,0,48607
S,816,3264020,187,0,0,52654
S,817,3268020,187,0,0,56847
S,818,3272024,203,0,0,61072
S,819,3276020,242,0,0,65284
S,820,3280020,294,0,0,3764
S,821,3284020,351,0,0,7788
S,822,3288020,411,0,0,10571
S,823,3292020,481,0,0,14736
S,824,3296020,562,0,0,18988
S,825,3300020,620,0,0,23507
S,826,3304024,623,0,0,27455
S,827,3308020,565,0,0,30920
S,828,3312020,467,0,0,35657
S,829,3316024,374,0,0,39745
S,830,3320024,310,0,0,43746
S,831,3324020,271,0,0,47734
S,832,3328020,242,0,0,52116
S,833,3332020,218,0,0,54301
S,834,3336024,203,0,0,58595
S,835,3340020,195,0,0,62790
S,836,3344020,192,0,0,1315
S,837,3348020,188,0,0,5630
S,838,3352020,187,0,0,9754
S,839,3356020,187,0,0,14011
S,840,3360024,191,0,0,18140
S,841,3364020,194,0,0,22284
S,842,3368020,193,0,0,26604
S,843,3372020,195,0,0,28751
S,844,3376024,199,0,0,32800
S,845,3380020,204,0,0,36998
S,846,3384020,208,0,0,41337
S,847,3388020,209,0,0,45529
S,848,3392020,212,0,0,49571
S,849,3396020,216,0,0,53774
S,850,3400020,220,0,0,58089
S,851,3404020,224,0,0,62324
S,852,3408024,226,0,0,794
S,853,3412020,227,0,0,5046
S,854,3416020,229,0,0,7251
S,855,3420020,232,0,0,11519
S,856,3424020,234,0,0,15506
S,857,3428020,235,0,0,19762
S,858,3432020,237,0,0,24023
S,859,3436020,238,0,0,28277
S,860,3440020,243,0,0,32271
S,861,3444024,247,0,0,36518
S,862,3448020,248,0,0,40774
S,863,3452020,248,0,0,45031
S,864,3456020,251,0,0,49083
S,865,3460020,256,0,0,51681
S,866,3464020,260,0,0,55558
S,867,3468020,261,0,0,59558
S,868,3472020,262,0,0,63682
S,869,3476024,265,0,0,2145
S,870,3480020,270,0,0,7049
S,871,3484020,273,0,0,11063
S,872,3488020,274,0,0,15195
S,873,3492020,276,0,0,19196
S,874,3496020,281,0,0,23058
S,875,3500020,285,0,0,26039
S,876,3504024,286,0,0,30175
S,877,3508020,286,0,0,34162
S,878,3512024,286,0,0,38045
S,879,3516020,289,0,0,41999
S,880,3520020,292,0,0,46197
S,881,3524020,293,0,0,51157
S,882,3528020,293,0,0,55094
S,883,3532020,293,0,0,59031
S,884,3536020,295,0,0,63218
S,885,3540020,299,0,0,1628
S,886,3544020,300,0,0,4536
S,887,3548020,298,0,0,8479
S,888,3552020,295,0,0,12669
S,889,3556024,295,0,0,16592
S,890,3560024,295,0,0,20531
S,891,3564020,295,0,0,25502
S,892,3568020,292,0,0,29690
S,893,3572020,290,0,0,33629
S,894,3576024,292,0,0,37556
S,895,3580020,292,0,0,41497
S,896,3584020,289,0,0,45699
S,897,3588020,287,0,0,48412
S,898,3592024,286,0,0,52722
S,899,3596024,289,0,0,56428
S,900,3600020,292,0,0,60418
S,901,3604024,294,0,0,64685
S,902,3608024,293,0,0,3916
S,903,3612020,291,0,0,8167
S,904,3616020,293,0,0,12174
S,905,3620020,296,0,0,15906
S,906,3624020,298,0,0,20163
S,907,3628024,298,0,0,22894
S,908,3632024,296,0,0,26891
S,909,3636020,300,0,0,31138
S,910,3640020,304,0,0,34909
S,911,3644020,306,0,0,39166
S,912,3648020,304,0,0,43139
S,913,3652020,303,0,0,47933
S,914,3656020,305,0,0,52160
S,915,3660020,308,0,0,55908
S,916,3664020,310,0,0,59905
S,917,3668020,310,0,0,64160
S,918,3672020,309,0,0,1359
S,919,3676020,310,0,0,5613
S,920,3680020,312,0,0,9612
S,921,3684020,313,0,0,13356
S,922,3688020,315,0,0,17613
S,923,3692020,315,0,0,22380
S,924,3696020,315,0,0,26379
S,925,3700024,316,0,0,30625
S,926,3704020,316,0,0,34382
S,927,3708020,315,0,0,38632
S,928,3712020,315,0,0,42679
S,929,3716024,317,0,0,45340
S,930,3720020,320,0,0,49550
S,931,3724024,321,0,0,53282
S,932,3728020,322,0,0,57418
S,933,3732024,320,0,0,61669
S,934,3736024,323,0,0,772
S,935,3740020,326,0,0,5036
S,936,3744024,328,0,0,9153
S,937,3748020,328,0,0,12908
S,938,3752024,328,0,0,17027
S,939,3756024,329,0,0,19747
S,940,3760020,331,0,0,23882
S,941,3764020,331,0,0,28139
S,942,3768020,331,0,0,31752
S,943,3772020,331,0,0,36009
S,944,3776020,334,0,0,40147
S,945,3780024,336,0,0,44896
S,946,3784024,340,0,0,49031
S,947,3788020,339,0,0,52781
S,948,3792020,338,0,0,56907
S,949,3796020,339,0,0,61163
S,950,3800020,342,0,0,63757
S,951,3804020,344,0,0,2465
S,952,3808024,345,0,0,6595
S,953,3812020,346,0,0,10349
S,954,3816020,349,0,0,14473
S,955,3820020,353,0,0,19220
S,956,3824020,356,0,0,23414
S,957,3828020,355,0,0,27600
S,958,3832020,356,0,0,31284
S,959,3836020,359,0,0,35478
S,960,3840020,362,0,0,39556
S,961,3844020,364,0,0,42275
S,962,3848020,364,0,0,46528
S,963,3852020,365,0,0,50272
S,964,3856020,367,0,0,54277
S,965,3860024,371,0,0,58548
S,966,3864020,375,0,0,63327
S,967,3868020,376,0,0,2032
S,968,3872020,376,0,0,6047
S,969,3876020,379,0,0,9789
S,970,3880020,382,0,0,14043
S,971,3884020,387,0,0,16775
S,972,3888024,390,0,0,20969
S,973,3892024,392,0,0,24902
S,974,3896024,395,0,0,28838
S,975,3900020,400,0,0,32784
S,976,3904020,405,0,0,36970
S,977,3908020,409,0,0,41927
S,978,3912024,413,0,0,45868
S,979,3916020,415,0,0,49795
S,980,3920020,416,0,0,53979
S,981,3924020,419,0,0,57977
S,982,3928020,422,0,0,60831
S,983,3932020,431,0,0,64823
S,984,3936020,435,0,0,3395
S,985,3940020,433,0,0,7392
S,986,3944020,427,0,0,11289
S,987,3948020,424,0,0,16315
S,988,3952024,422,0,0,20446
S,989,3956024,423,0,0,24446
S,990,3960024,424,0,0,28306
S,991,3964020,423,0,0,32304
S,992,3968020,420,0,0,36460
S,993,3972020,418,0,0,39371
S,994,3976020,417,0,0,43307
S,995,3980024,419,0,0,47236
S,996,3984020,422,0,0,51434
S,997,3988024,421,0,0,55364
S,998,3992020,420,0,0,60330
S,999,3996020,421,0,0,64266
S,1000,4000020,423,0,0,2918
S,1001,4004020,425,0,0,6857
S,1002,4008024,426,0,0,10789
S,1003,4012024,427,0,0,13701
S,1004,4016020,430,0,0,17899
S,1005,4020020,431,0,0,21835
S,1006,4024020,429,0,0,25770
S,1007,4028020,435,0,0,29717
S,1008,4032020,461,0,0,33812
S,1009,4036020,505,0,0,38785
S,1010,4040020,560,0,0,42155
S,1011,4044020,625,0,0,46411
S,1012,4048020,695,0,0,50666
S,1013,4052020,715,0,0,54583
S,1014,4056020,716,0,0,58067
S,1015,4060020,717,0,0,62067
S,1016,4064024,717,0,0,531
S,1017,4068024,716,0,0,5043
S,1018,4072020,714,0,0,9050
S,1019,4076020,677,0,0,12436
S,1020,4080020,572,0,0,16490
S,1021,4084020,489,0,0,21278
S,1022,4088020,452,0,0,25296
S,1023,4092020,445,0,0,29192
S,1024,4096020,450,0,0,34280
S,1025,4100020,454,0,0,35405
S,1026,4104020,450,0,0,39594
S,1027,4108020,444,0,0,43893
S,1028,4112020,441,0,0,47895
S,1029,4116020,441,0,0,52150
S,1030,4120020,442,0,0,55382
S,1031,4124020,442,0,0,59639
S,1032,4128020,442,0,0,63640
S,1033,4132020,443,0,0,2361
S,1034,4136020,444,0,0,6621
S,1035,4140020,447,0,0,11903
S,1036,4144020,451,0,0,15972
S,1037,4148020,452,0,0,20162
S,1038,4152020,451,0,0,24358
S,1039,4156020,453,0,0,28545
S,1040,4160020,455,0,0,32764
S,1041,4164020,456,0,0,35922
S,1042,4168024,455,0,0,40114
S,1043,4172024,455,0,0,44307
S,1044,4176020,457,0,0,48502
S,1045,4180020,460,0,0,52690
S,1046,4184020,461,0,0,53808
S,1047,4188024,461,0,0,58013
S,1048,4192020,462,0,0,62205
S,1049,4196020,465,0,0,828
S,1050,4200020,467,0,0,5085
S,1051,4204020,468,0,0,8315
S,1052,4208020,467,0,0,12315
S,1053,4212020,466,0,0,16571
S,1054,4216020,468,0,0,20830
S,1055,4220020,471,0,0,25084
S,1056,4224020,472,0,0,29100
S,1057,4228024,473,0,0,34304
S,1058,4232020,472,0,0,38638
S,1059,4236020,474,0,0,42829
S,1060,4240020,477,0,0,46893
S,1061,4244020,480,0,0,51121
S,1062,4248020,481,0,0,54355
S,1063,4252020,481,0,0,58610
S,1064,4256020,484,0,0,62616
S,1065,4260020,486,0,0,1338
S,1066,4264020,486,0,0,5593
S,1067,4268020,484,0,0,6778
S,1068,4272020,480,0,0,10777
S,1069,4276020,482,0,0,15034
S,1070,4280020,484,0,0,19295
S,1071,4284020,483,0,0,23545
S,1072,4288020,480,0,0,27525
S,1073,4292020,480,0,0,30756
S,1074,4296020,481,0,0,35014
S,1075,4300020,482,0,0,39268
S,1076,4304020,481,0,0,43264
S,1077,4308020,479,0,0,47519
S,1078,4312020,477,0,0,52862
S,1079,4316020,476,0,0,57054
S,1080,4320020,475,0,0,61110
S,1081,4324020,475,0,0,65303
S,1082,4328020,474,0,0,4086
S,1083,4332024,472,0,0,7257
S,1084,4336024,471,0,0,11313
S,1085,4340020,473,0,0,15506
S,1086,4344020,474,0,0,19826
S,1087,4348020,472,0,0,24017
S,1088,4352020,471,0,0,28097
S,1089,4356020,471,0,0,29280
S,1090,4360020,472,0,0,33420
S,1091,4364020,472,0,0,37677
S,1092,4368020,468,0,0,41798
S,1093,4372020,467,0,0,46048
S,1094,4376020,472,0,0,49160
S,1095,4380020,477,0,0,53420
S,1096,4384020,477,0,0,57539
S,1097,4388020,475,0,0,61796
S,1098,4392020,472,0,0,389
S,1099,4396020,473,0,0,5669
S,1100,4400020,476,0,0,9799
S,1101,4404020,476,0,0,14054
S,1102,4408020,475,0,0,18178
S,1103,4412020,473,0,0,22433
S,1104,4416020,473,0,0,26590
S,1105,4420020,473,0,0,29823
S,1106,4424020,474,0,0,33951
S,1107,4428020,473,0,0,38205
S,1108,4432020,470,0,0,42325
S,1109,4436020,470,0,0,46580
S,1110,4440020,471,0,0,47638
S,1111,4444020,471,0,0,51895
S,1112,4448020,468,0,0,56027
S,1113,4452020,466,0,0,60284
S,1114,4456024,467,0,0,64402
S,1115,4460020,469,0,0,2110
S,1116,4464020,469,0,0,6233
S,1117,4468020,467,0,0,10494
S,1118,4472020,466,0,0,14620
S,1119,4476020,466,0,0,18877
S,1120,4480020,468,0,0,23012
S,1121,4484020,468,0,0,28229
S,1122,4488020,466,0,0,32416
S,1123,4492020,466,0,0,36609
S,1124,4496020,466,0,0,40806
S,1125,4500020,467,0,0,44998
S,1126,4504020,466,0,0,48164
S,1127,4508020,464,0,0,52359
S,1128,4512020,463,0,0,56567
S,1129,4516020,462,0,0,60759
S,1130,4520020,464,0,0,64938
S,1131,4524020,465,0,0,523
S,1132,4528020,463,0,0,4722
S,1133,4532024,462,0,0,8926
S,1134,4536020,463,0,0,13104
S,1135,4540020,464,0,0,17294
S,1136,4544020,464,0,0,21489
S,1137,4548020,462,0,0,24654
S,1138,4552020,461,0,0,28846
S,1139,4556020,461,0,0,33039
S,1140,4560020,462,0,0,37227
S,1141,4564020,462,0,0,41418
S,1142,4568020,460,0,0,46635
S,1143,4572020,459,0,0,50829
S,1144,4576020,461,0,0,55012
S,1145,4580020,463,0,0,59207
S,1146,4584020,463,0,0,63396
S,1147,4588024,460,0,0,1033
S,1148,4592020,459,0,0,5221
S,1149,4596024,460,0,0,9423
S,1150,4600020,461,0,0,13601
S,1151,4604020,461,0,0,17792
S,1152,4608024,459,0,0,21781
S,1153,4612020,459,0,0,23224
S,1154,4616020,460,0,0,27228
S,1155,4620020,462,0,0,31743
S,1156,4624020,461,0,0,35739
S,1157,4628020,459,0,0,39740
S,1158,4632020,457,0,0,43229
S,1159,4636020,458,0,0,47231
S,1160,4640020,459,0,0,51217
S,1161,4644020,459,0,0,55728
S,1162,4648020,457,0,0,59729
S,1163,4652020,456,0,0,65265
S,1164,4656020,457,0,0,3734
S,1165,4660024,458,0,0,7736
S,1166,4664020,456,0,0,12245
S,1167,4668020,455,0,0,16251
S,1168,4672020,455,0,0,20228
S,1169,4676020,456,0,0,23722
S,1170,4680020,457,0,0,27720
S,1171,4684020,456,0,0,32232
S,1172,4688020,454,0,0,36225
S,1173,4692020,453,0,0,40227
S,1174,4696020,455,0,0,41666
S,1175,4700020,457,0,0,45677
S,1176,4704024,457,0,0,49678
S,1177,4708020,456,0,0,54178
S,1178,4712020,455,0,0,58190
S,1179,4716020,461,0,0,61669
S,1180,4720020,467,0,0,147
S,1181,4724020,469,0,0,4148
S,1182,4728020,467,0,0,8657
S,1183,4732020,466,0,0,12657
S,1184,4736024,465,0,0,16673
S,1185,4740024,464,0,0,22145
S,1186,4744020,465,0,0,26223
S,1187,4748020,467,0,0,30668
S,1188,4752020,470,0,0,34734
S,1189,4756020,470,0,0,38671
S,1190,4760024,465,0,0,42215
S,1191,4764020,458,0,0,46161
S,1192,4768020,455,0,0,50227
S,1193,4772020,455,0,0,54674
S,1194,4776020,453,0,0,58739
S,1195,4780020,451,0,0,60116
S,1196,4784024,448,0,0,64188
S,1197,4788020,445,0,0,2669
S,1198,4792020,443,0,0,7048
S,1199,4796020,440,0,0,11050
S,1200,4800020,440,0,0,15189
S,1201,4804020,439,0,0,18683
S,1202,4808020,436,0,0,22555
S,1203,4812020,432,0,0,27070
S,1204,4816020,435,0,0,31194
S,1205,4820020,437,0,0,35197
S,1206,4824020,437,0,0,40606
S,1207,4828020,436,0,0,44606
S,1208,4832020,435,0,0,48726
S,1209,4836020,436,0,0,53232
S,1210,4840020,435,0,0,57108
S,1211,4844020,437,0,0,60595
S,1212,4848020,456,0,0,64681
S,1213,4852020,495,0,0,3116
S,1214,4856020,546,0,0,7682
S,1215,4860020,603,0,0,11994
S,1216,4864020,666,0,0,15876
S,1217,4868020,713,0,0,16886
S,1218,4872020,715,0,0,20759
S,1219,4876020,716,0,0,24753
S,1220,4880020,716,0,0,28886
S,1221,4884020,716,0,0,32887
S,1222,4888020,713,0,0,37777
S,1223,4892020,661,0,0,41836
S,1224,4896020,549,0,0,46003
S,1225,4900020,463,0,0,49656
S,1226,4904020,423,0,0,53619
S,1227,4908020,411,0,0,59118
S,1228,4912020,409,0,0,63115
S,1229,4916020,409,0,0,1579
S,1230,4920024,406,0,0,6091
S,1231,4924024,399,0,0,10099
S,1232,4928020,393,0,0,14086
S,1233,4932020,389,0,0,17579
S,1234,4936020,390,0,0,21579
S,1235,4940020,390,0,0,26090
S,1236,4944020,391,0,0,30092
S,1237,4948020,391,0,0,34093
S,1238,4952020,391,0,0,35534
S,1239,4956020,394,0,0,39522
S,1240,4960024,396,0,0,43527
S,1241,4964020,398,0,0,48040
S,1242,4968020,397,0,0,52040
S,1243,4972020,397,0,0,55529
S,1244,4976020,399,0,0,59532
S,1245,4980020,402,0,0,63536
S,1246,4984020,402,0,0,2516
S,1247,4988020,402,0,0,6517
S,1248,4992020,402,0,0,10538
S,1249,4996020,405,0,0,16012
S,1250,5000020,408,0,0,20066
S,1251,5004020,409,0,0,24514
S,1252,5008020,406,0,0,28586
S,1253,5012020,406,0,0,32523
S,1254,5016020,407,0,0,36073
S,1255,5020020,409,0,0,40006
S,1256,5024020,411,0,0,44075
S,1257,5028020,411,0,0,48522
S,1258,5032020,410,0,0,52584
S,1259,5036020,412,0,0,53967
S,1260,5040020,416,0,0,58004
S,1261,5044020,418,0,0,62007
S,1262,5048020,419,0,0,980
S,1263,5052024,420,0,0,4990
S,1264,5056020,422,0,0,8975
S,1265,5060020,426,0,0,12450
S,1266,5064020,429,0,0,16454
S,1267,5068020,428,0,0,20966
S,1268,5072020,428,0,0,24961
S,1269,5076020,429,0,0,28961
S,1270,5080020,432,0,0,34527
S,1271,5084020,431,0,0,38497
S,1272,5088020,429,0,0,42508
S,1273,5092020,427,0,0,47019
S,1274,5096024,427,0,0,51012
S,1275,5100020,427,0,0,54505
S,1276,5104020,425,0,0,58508
S,1277,5108020,421,0,0,62497
S,1278,5112020,421,0,0,1473
S,1279,5116020,421,0,0,5472
S,1280,5120024,420,0,0,9458
S,1281,5124020,416,0,0,11099
S,1282,5128020,412,0,0,15236
S,1283,5132024,409,0,0,18988
S,1284,5136020,410,0,0,23108
S,1285,5140024,409,0,0,27370
S,1286,5144020,406,0,0,30986
S,1287,5148020,404,0,0,35241
S,1288,5152024,403,0,0,39373
S,1289,5156024,401,0,0,43118
S,1290,5160020,402,0,0,47234
S,1291,5164020,400,0,0,53025
S,1292,5168020,397,0,0,57179
S,1293,5172020,395,0,0,61436
S,1294,5176020,397,0,0,65049
S,1295,5180020,398,0,0,3770
S,1296,5184020,397,0,0,7878
S,1297,5188020,394,0,0,11616
S,1298,5192024,393,0,0,15756
S,1299,5196020,395,0,0,19491
S,1300,5200020,398,0,0,23617
S,1301,5204020,397,0,0,27875
S,1302,5208020,396,0,0,29441
S,1303,5212020,395,0,0,33703
S,1304,5216020,396,0,0,37839
S,1305,5220020,397,0,0,41583
S,1306,5224020,397,0,0,45708
S,1307,5228020,394,0,0,49450
S,1308,5232020,392,0,0,53583
S,1309,5236020,393,0,0,57839
S,1310,5240020,395,0,0,61454
S,1311,5244020,395,0,0,176
S,1312,5248020,393,0,0,4333
S,1313,5252020,392,0,0,10061
S,1314,5256024,393,0,0,14243
S,1315,5260020,397,0,0,17930
S,1316,5264020,395,0,0,22123
S,1317,5268020,391,0,0,26310
S,1318,5272020,388,0,0,29990
S,1319,5276020,389,0,0,34182
S,1320,5280020,390,0,0,38378
S,1321,5284020,389,0,0,42056
S,1322,5288020,386,0,0,46252
S,1323,5292024,384,0,0,47875
S,1324,5296020,386,0,0,52074
S,1325,5300020,387,0,0,56266
S,1326,5304020,385,0,0,59947
S,1327,5308020,383,0,0,64116
S,1328,5312020,381,0,0,2568
S,1329,5316020,381,0,0,6569
S,1330,5320020,384,0,0,10679
S,1331,5324024,384,0,0,14362
S,1332,5328020,381,0,0,18572
S,1333,5332020,379,0,0,22571
S,1334,5336020,380,0,0,28623
S,1335,5340020,380,0,0,32622
S,1336,5344020,378,0,0,36615
S,1337,5348020,375,0,0,40619
S,1338,5352020,372,0,0,44619
S,1339,5356020,376,0,0,48614
S,1340,5360020,378,0,0,52611
S,1341,5364020,378,0,0,56610
S,1342,5368020,375,0,0,60620
S,1343,5372020,374,0,0,64620
S,1344,5376020,375,0,0,3185
S,1345,5380020,377,0,0,5086
S,1346,5384024,377,0,0,9009
S,1347,5388020,373,0,0,12944
S,1348,5392020,371,0,0,17137
S,1349,5396020,372,0,0,21079
S,1350,5400020,372,0,0,25012
S,1351,5404020,373,0,0,28948
S,1352,5408020,372,0,0,33146
S,1353,5412024,371,0,0,37072
S,1354,5416020,371,0,0,41023
S,1355,5420020,373,0,0,47000
S,1356,5424020,372,0,0,51198
S,1357,5428020,369,0,0,55130
S,1358,5432020,368,0,0,59064
S,1359,5436020,370,0,0,63003
S,1360,5440020,372,0,0,1635
S,1361,5444020,371,0,0,5573
S,1362,5448024,367,0,0,9526
S,1363,5452020,365,0,0,13465
S,1364,5456020,368,0,0,17635
S,1365,5460020,370,0,0,21568
S,1366,5464020,369,0,0,23456
S,1367,5468020,367,0,0,27423
S,1368,5472020,365,0,0,31602
S,1369,5476020,364,0,0,35538
S,1370,5480020,365,0,0,39472
S,1371,5484020,365,0,0,43409
S,1372,5488020,362,0,0,47601
S,1373,5492020,361,0,0,51539
S,1374,5496020,362,0,0,55475
S,1375,5500020,362,0,0,59410
S,1376,5504024,363,0,0,63552
S,1377,5508020,362,0,0,4075
S,1378,5512024,361,0,0,7943
S,1379,5516020,362,0,0,11945
S,1380,5520020,363,0,0,16079
S,1381,5524020,363,0,0,20078
S,1382,5528020,362,0,0,23948
S,1383,5532020,361,0,0,27950
S,1384,5536020,363,0,0,32067
S,1385,5540020,364,0,0,36069
S,1386,5544020,362,0,0,39936
S,1387,5548020,360,0,0,41891
S,1388,5552020,358,0,0,46026
S,1389,5556020,359,0,0,50026
S,1390,5560020,361,0,0,53895
S,1391,5564020,360,0,0,57895
S,1392,5568020,357,0,0,62037
S,1393,5572020,356,0,0,500
S,1394,5576020,358,0,0,4373
S,1395,5580024,360,0,0,8374
S,1396,5584020,360,0,0,12509
S,1397,5588020,359,0,0,16499
S,1398,5592020,359,0,0,22416
S,1399,5596020,359,0,0,26417
S,1400,5600020,361,0,0,30544
S,1401,5604020,365,0,0,34549
S,1402,5608020,367,0,0,38420
S,1403,5612020,369,0,0,42411
S,1404,5616020,373,0,0,46536
S,1405,5620020,376,0,0,50532
S,1406,5624020,374,0,0,54409
S,1407,5628020,370,0,0,58412
S,1408,5632020,371,0,0,62642
S,1409,5636020,379,0,0,64283
S,1410,5640020,384,0,0,2816
S,1411,5644020,381,0,0,6748
S,1412,5648020,371,0,0,10805
S,1413,5652020,367,0,0,14984
S,1414,5656020,369,0,0,18805
S,1415,5660020,368,0,0,22997
S,1416,5664020,364,0,0,27046
S,1417,5668024,358,0,0,30721
S,1418,5672020,356,0,0,35052
S,1419,5676020,356,0,0,40781
S,1420,5680020,354,0,0,44844
S,1421,5684020,350,0,0,49073
S,1422,5688020,347,0,0,52823
S,1423,5692020,346,0,0,57079
S,1424,5696020,344,0,0,61066
S,1425,5700020,346,0,0,64809
S,1426,5704020,345,0,0,3528
S,1427,5708020,343,0,0,7271
S,1428,5712020,345,0,0,11278
S,1429,5716020,348,0,0,15530
S,1430,5720020,350,0,0,17227
S,1431,5724020,347,0,0,21487
S,1432,5728020,340,0,0,25487
S,1433,5732020,342,0,0,29228
S,1434,5736020,367,0,0,33526
S,1435,5740020,409,0,0,37281
S,1436,5744020,460,0,0,41363
S,1437,5748020,521,0,0,45815
S,1438,5752020,589,0,0,50000
S,1439,5756020,664,0,0,54052
S,1440,5760020,713,0,0,58154
S,1441,5764020,713,0,0,62603
S,1442,5768020,707,0,0,1133
S,1443,5772024,647,0,0,5508
S,1444,5776020,541,0,0,9589
S,1445,5780020,447,0,0,13942
S,1446,5784020,390,0,0,17836
S,1447,5788020,362,0,0,21985
S,1448,5792020,345,0,0,26045
S,1449,5796020,334,0,0,29707
S,1450,5800020,328,0,0,34030
S,1451,5804020,321,0,0,35654
S,1452,5808020,314,0,0,39770
S,1453,5812020,309,0,0,44020
S,1454,5816020,309,0,0,47639
S,1455,5820020,312,0,0,51899
S,1456,5824020,309,0,0,56009
S,1457,5828020,306,0,0,59759
S,1458,5832020,304,0,0,63886
S,1459,5836020,307,0,0,2093
S,1460,5840020,310,0,0,6223
S,1461,5844020,310,0,0,10478
S,1462,5848020,310,0,0,16141
S,1463,5852020,311,0,0,20397
S,1464,5856024,311,0,0,24526
S,1465,5860020,312,0,0,28268
S,1466,5864020,311,0,0,32384
S,1467,5868020,311,0,0,36129
S,1468,5872020,311,0,0,40262
S,1469,5876020,315,0,0,44523
S,1470,5880020,318,0,0,48141
S,1471,5884024,318,0,0,52384
S,1472,5888020,317,0,0,56496
S,1473,5892020,315,0,0,58135
S,1474,5896020,320,0,0,62351
S,1475,5900020,323,0,0,558
S,1476,5904020,323,0,0,4681
S,1477,5908024,322,0,0,8933
S,1478,5912020,322,0,0,12554
S,1479,5916020,324,0,0,16813
S,1480,5920020,327,0,0,20929
S,1481,5924020,327,0,0,24672
S,1482,5928020,327,0,0,28803
S,1483,5932020,327,0,0,34594
S,1484,5936020,331,0,0,38729
S,1485,5940020,332,0,0,42991
S,1486,5944020,334,0,0,46606
S,1487,5948020,335,0,0,50862
S,1488,5952020,336,0,0,54990
S,1489,5956020,340,0,0,58731
S,1490,5960020,343,0,0,62859
S,1491,5964020,343,0,0,1067
S,1492,5968024,343,0,0,5184
S,1493,5972020,342,0,0,9452
S,1494,5976020,342,0,0,11023
S,1495,5980020,342,0,0,15278
S,1496,5984024,341,0,0,19406
S,1497,5988020,338,0,0,23140
S,1498,5992020,337,0,0,27268
S,1499,5996020,339,0,0,31015
S,1500,6000020,340,0,0,35143
S,1501,6004020,338,0,0,39392
S,1502,6008020,336,0,0,43009
S,1503,6012020,334,0,0,47294
S,1504,6016020,333,0,0,51426
S,1505,6020020,332,0,0,57154
S,1506,6024020,329,0,0,61348
S,1507,6028020,327,0,0,65035
S,1508,6032020,325,0,0,3689
S,1509,6036020,325,0,0,7880
S,1510,6040020,324,0,0,11562
S,1511,6044020,323,0,0,15756
S,1512,6048020,320,0,0,19936
S,1513,6052020,319,0,0,23614
S,1514,6056024,321,0,0,27823
S,1515,6060020,321,0,0,29442
S,1516,6064020,318,0,0,33562
S,1517,6068020,315,0,0,37822
S,1518,6072024,315,0,0,41553
S,1519,6076020,316,0,0,45819
S,1520,6080020,318,0,0,49798
S,1521,6084020,318,0,0,53543
S,1522,6088020,315,0,0,57793
S,1523,6092020,316,0,0,61543
S,1524,6096020,318,0,0,3
S,1525,6100020,319,0,0,4259
S,1526,6104020,319,0,0,10048
S,1527,6108020,318,0,0,14304
S,1528,6112024,317,0,0,18304
S,1529,6116020,319,0,0,22063
S,1530,6120024,320,0,0,26303
S,1531,6124020,319,0,0,30061
S,1532,6128020,316,0,0,34057
S,1533,6132020,315,0,0,38319
S,1534,6136020,316,0,0,42059
S,1535,6140020,316,0,0,46314
S,1536,6144020,317,0,0,51060
S,1537,6148020,314,0,0,51410
S,1538,6152020,314,0,0,55345
S,1539,6156020,315,0,0,59793
S,1540,6160020,314,0,0,63991
S,1541,6164024,311,0,0,2388
S,1542,6168020,309,0,0,6841
S,1543,6172020,308,0,0,10777
S,1544,6176020,309,0,0,14967
S,1545,6180020,310,0,0,19413
S,1546,6184020,309,0,0,23349
S,1547,6188020,305,0,0,27792
S,1548,6192020,306,0,0,31988
S,1549,6196020,309,0,0,35922
S,1550,6200020,311,0,0,40371
S,1551,6204020,310,0,0,44307
S,1552,6208020,307,0,0,48489
S,1553,6212020,306,0,0,52937
S,1554,6216020,306,0,0,56874
S,1555,6220020,307,0,0,61322
S,1556,6224024,305,0,0,65507
S,1557,6228024,302,0,0,3932
S,1558,6232020,302,0,0,4275
S,1559,6236020,303,0,0,8211
S,1560,6240020,306,0,0,12385
S,1561,6244020,304,0,0,16834
S,1562,6248020,301,0,0,20796
S,1563,6252020,300,0,0,25244
S,1564,6256020,302,0,0,29433
S,1565,6260020,303,0,0,33369
S,1566,6264020,302,0,0,37819
S,1567,6268024,300,0,0,41748
S,1568,6272020,298,0,0,45889
S,1569,6276020,299,0,0,50401
S,1570,6280020,299,0,0,54274
S,1571,6284020,298,0,0,58786
S,1572,6288024,297,0,0,62922
S,1573,6292020,297,0,0,1368
S,1574,6296020,298,0,0,5816
S,1575,6300020,299,0,0,9752
S,1576,6304020,297,0,0,13941
S,1577,6308020,294,0,0,18395
S,1578,6312020,294,0,0,22328
S,1579,6316020,295,0,0,22680
S,1580,6320020,297,0,0,26865
S,1581,6324020,296,0,0,30801
S,1582,6328020,294,0,0,35260
S,1583,6332020,292,0,0,39199
S,1584,6336020,293,0,0,43361
S,1585,6340020,295,0,0,47810
S,1586,6344020,293,0,0,51747
S,1587,6348020,290,0,0,56197
S,1588,6352024,289,0,0,60397
S,1589,6356020,290,0,0,64323
S,1590,6360020,291,0,0,3232
S,1591,6364020,289,0,0,7171
S,1592,6368020,288,0,0,11373
S,1593,6372020,289,0,0,15821
S,1594,6376024,291,0,0,19744
S,1595,6380024,291,0,0,24193
S,1596,6384020,287,0,0,28374
S,1597,6388020,286,0,0,32374
S,1598,6392020,285,0,0,36758
S,1599,6396020,286,0,0,40756
S,1600,6400020,287,0,0,44842
S,1601,6404020,286,0,0,45194
S,1602,6408024,283,0,0,49248
S,1603,6412020,282,0,0,53708
S,1604,6416020,284,0,0,57773
S,1605,6420024,285,0,0,61697
S,1606,6424020,284,0,0,748
S,1607,6428020,281,0,0,4680
S,1608,6432020,279,0,0,8745
S,1609,6436020,283,0,0,13188
S,1610,6440020,285,0,0,17249
S,1611,6444020,282,0,0,21703
S,1612,6448020,279,0,0,25773
S,1613,6452024,277,0,0,29698
S,1614,6456020,279,0,0,34287
S,1615,6460020,281,0,0,38208
S,1616,6464020,279,0,0,42289
S,1617,6468020,277,0,0,46738
S,1618,6472020,277,0,0,50801
S,1619,6476020,280,0,0,55261
S,1620,6480020,281,0,0,59323
S,1621,6484020,284,0,0,63263
S,1622,6488020,286,0,0,63742
S,1623,6492020,288,0,0,2144
S,1624,6496020,291,0,0,6156
S,1625,6500020,290,0,0,10668
S,1626,6504020,287,0,0,14706
S,1627,6508020,285,0,0,19153
S,1628,6512020,288,0,0,23179
S,1629,6516020,294,0,0,27180
S,1630,6520020,293,0,0,31692
S,1631,6524020,286,0,0,35670
S,1632,6528024,279,0,0,39692
S,1633,6532020,276,0,0,44194
S,1634,6536020,278,0,0,48195
S,1635,6540020,277,0,0,52705
S,1636,6544020,271,0,0,56732
S,1637,6548020,266,0,0,60728
S,1638,6552024,264,0,0,65237
S,1639,6556020,265,0,0,3710
S,1640,6560020,263,0,0,7711
S,1641,6564020,259,0,0,12218
S,1642,6568024,254,0,0,16040
S,1643,6572020,252,0,0,16647
S,1644,6576020,253,0,0,20833
S,1645,6580020,251,0,0,25030
S,1646,6584020,251,0,0,28709
S,1647,6588020,249,0,0,32902
S,1648,6592020,250,0,0,37114
S,1649,6596020,253,0,0,41820
S,1650,6600024,252,0,0,46002
S,1651,6604024,247,0,0,49688
S,1652,6608020,249,0,0,53885
S,1653,6612020,271,0,0,58154
S,1654,6616020,313,0,0,62719
S,1655,6620020,363,0,0,1037
S,1656,6624020,419,0,0,5290
S,1657,6628020,481,0,0,9545
S,1658,6632020,554,0,0,13921
S,1659,6636020,627,0,0,17817
S,1660,6640020,662,0,0,21787
S,1661,6644024,638,0,0,25950
S,1662,6648020,557,0,0,29922
S,1663,6652020,452,0,0,34730
S,1664,6656020,366,0,0,38815
S,1665,6660020,310,0,0,39014
S,1666,6664020,272,0,0,43171
S,1667,6668020,246,0,0,47332
S,1668,6672020,229,0,0,51344
S,1669,6676020,219,0,0,55311
S,1670,6680020,213,0,0,60386
S,1671,6684020,206,0,0,64344
S,1672,6688024,200,0,0,2878
S,1673,6692020,198,0,0,6813
S,1674,6696024,199,0,0,10867
S,1675,6700020,197,0,0,15836
S,1676,6704020,194,0,0,19900
S,1677,6708020,192,0,0,23839
S,1678,6712020,192,0,0,27900
S,1679,6716020,195,0,0,31838
S,1680,6720020,196,0,0,35878
S,1681,6724020,193,0,0,40834
S,1682,6728024,190,0,0,44818
S,1683,6732020,190,0,0,48831
S,1684,6736020,193,0,0,52903
S,1685,6740020,194,0,0,56837
S,1686,6744020,192,0,0,57828
S,1687,6748024,191,0,0,61750
S,1688,6752020,191,0,0,340
S,1689,6756020,192,0,0,4234
S,1690,6760024,193,0,0,8292
S,1691,6764020,191,0,0,13239
S,1692,6768020,190,0,0,17361
S,1693,6772020,191,0,0,21361
S,1694,6776020,192,0,0,25325
S,1695,6780020,194,0,0,29262
S,1696,6784020,193,0,0,33298
S,1697,6788020,191,0,0,38349
S,1698,6792020,191,0,0,42286
S,1699,6796020,194,0,0,46322
S,1700,6800020,196,0,0,50323
S,1701,6804020,195,0,0,54325
S,1702,6808020,195,0,0,59350
S,1703,6812020,196,0,0,63344
S,1704,6816020,201,0,0,1821
S,1705,6820020,204,0,0,5817
S,1706,6824024,203,0,0,9809
S,1707,6828020,202,0,0,10749
S,1708,6832020,203,0,0,14747
S,1709,6836020,206,0,0,18751
S,1710,6840020,207,0,0,22749
S,1711,6844020,205,0,0,26750
S,1712,6848020,203,0,0,30727
S,1713,6852024,204,0,0,35757
S,1714,6856020,205,0,0,39747
S,1715,6860020,203,0,0,43748
S,1716,6864020,200,0,0,47744
S,1717,6868020,197,0,0,51756
S,1718,6872020,196,0,0,56782
S,1719,6876020,195,0,0,60776
S,1720,6880024,196,0,0,64780
S,1721,6884020,192,0,0,3236
S,1722,6888020,186,0,0,7229
S,1723,6892020,182,0,0,12176
S,1724,6896020,181,0,0,16372
S,1725,6900020,180,0,0,20308
S,1726,6904020,177,0,0,24242
S,1727,6908020,171,0,0,28169
S,1728,6912020,167,0,0,32282
S,1729,6916020,167,0,0,33211
S,1730,6920020,165,0,0,37210
S,1731,6924020,161,0,0,41215
S,1732,6928020,159,0,0,45222
S,1733,6932020,159,0,0,49159
S,1734,6936020,159,0,0,54244
S,1735,6940020,158,0,0,58180
S,1736,6944020,156,0,0,62249
S,1737,6948020,153,0,0,654
S,1738,6952020,151,0,0,4707
S,1739,6956020,153,0,0,9676
S,1740,6960020,154,0,0,13736
S,1741,6964020,152,0,0,17675
S,1742,6968020,150,0,0,21734
S,1743,6972020,148,0,0,25669
S,1744,6976020,150,0,0,29752
S,1745,6980020,151,0,0,34712
S,1746,6984020,151,0,0,38779
S,1747,6988020,149,0,0,42712
S,1748,6992020,149,0,0,46783
S,1749,6996020,149,0,0,50718
S,1750,7000020,148,0,0,51708
S,1751,7004020,145,0,0,55640
S,1752,7008024,144,0,0,59706
S,1753,7012020,144,0,0,63639
S,1754,7016024,144,0,0,2169
S,1755,7020020,142,0,0,7114
S,1756,7024020,141,0,0,11182
S,1757,7028020,140,0,0,15118
S,1758,7032020,140,0,0,19181
S,1759,7036020,140,0,0,23116
S,1760,7040024,140,0,0,27167
S,1761,7044024,138,0,0,32184
S,1762,7048024,135,0,0,36182
S,1763,7052020,134,0,0,40186
S,1764,7056020,135,0,0,44188
S,1765,7060020,135,0,0,48189
S,1766,7064020,133,0,0,53212
S,1767,7068020,132,0,0,57212
S,1768,7072020,130,0,0,61205
S,1769,7076020,132,0,0,65202
S,1770,7080020,132,0,0,3670
S,1771,7084020,131,0,0,4592
S,1772,7088024,127,0,0,8551
S,1773,7092024,127,0,0,12742
S,1774,7096020,128,0,0,16598
S,1775,7100020,129,0,0,20598
S,1776,7104020,127,0,0,24823
S,1777,7108020,124,0,0,29525
S,1778,7112020,125,0,0,33719
S,1779,7116020,127,0,0,37396
S,1780,7120020,127,0,0,41587
S,1781,7124020,124,0,0,45777
S,1782,7128020,123,0,0,50485
S,1783,7132020,122,0,0,54677
S,1784,7136020,123,0,0,58875
S,1785,7140020,124,0,0,62557
S,1786,7144020,122,0,0,1209
S,1787,7148020,120,0,0,5914
S,1788,7152020,119,0,0,10098
S,1789,7156020,120,0,0,14300
S,1790,7160020,122,0,0,17981
S,1791,7164020,121,0,0,22175
S,1792,7168020,118,0,0,26383
S,1793,7172024,119,0,0,26787
S,1794,7176020,121,0,0,30786
S,1795,7180020,122,0,0,35296
S,1796,7184020,120,0,0,39301
S,1797,7188020,117,0,0,43305
S,1798,7192020,115,0,0,47820
S,1799,7196020,117,0,0,51819
S,1800,7200020,117,0,0,55812
S,1801,7204020,115,0,0,60323
S,1802,7208020,112,0,0,64323
S,1803,7212020,113,0,0,3296
S,1804,7216020,115,0,0,7301
S,1805,7220020,116,0,0,11299
S,1806,7224020,115,0,0,15815
S,1807,7228020,112,0,0,19813
S,1808,7232020,112,0,0,23834
S,1809,7236020,115,0,0,28344
S,1810,7240020,116,0,0,32348
S,1811,7244024,115,0,0,36854
S,1812,7248020,113,0,0,40863
S,1813,7252020,113,0,0,44862
S,1814,7256020,117,0,0,45273
S,1815,7260020,118,0,0,49275
S,1816,7264020,116,0,0,53270
S,1817,7268020,113,0,0,57778
S,1818,7272020,115,0,0,61779
S,1819,7276020,117,0,0,757
S,1820,7280020,117,0,0,4754
S,1821,7284020,115,0,0,8757
S,1822,7288020,114,0,0,13271
S,1823,7292020,115,0,0,17271
S,1824,7296020,118,0,0,21293
S,1825,7300024,120,0,0,25742
S,1826,7304020,119,0,0,29806
S,1827,7308020,118,0,0,34254
S,1828,7312020,118,0,0,38313
S,1829,7316020,119,0,0,42249
S,1830,7320020,121,0,0,46820
S,1831,7324020,122,0,0,50758
S,1832,7328020,121,0,0,54826
S,1833,7332020,120,0,0,59274
S,1834,7336020,123,0,0,63338
S,1835,7340020,126,0,0,63694
S,1836,7344020,127,0,0,2231
S,1837,7348020,128,0,0,6377
S,1838,7352020,133,0,0,10511
S,1839,7356020,141,0,0,14758
S,1840,7360020,144,0,0,18884
S,1841,7364020,139,0,0,23166
S,1842,7368020,137,0,0,27295
S,1843,7372020,142,0,0,31545
S,1844,7376020,151,0,0,35655
S,1845,7380020,155,0,0,39914
S,1846,7384020,149,0,0,44039
S,1847,7388020,140,0,0,48319
S,1848,7392020,138,0,0,52438
S,1849,7396020,140,0,0,56689
S,1850,7400020,141,0,0,60819
S,1851,7404020,137,0,0,65078
S,1852,7408020,133,0,0,3676
S,1853,7412024,130,0,0,7926
S,1854,7416024,129,0,0,12054
S,1855,7420020,130,0,0,16312
S,1856,7424020,127,0,0,20314
S,1857,7428020,125,0,0,20729
S,1858,7432020,126,0,0,24601
S,1859,7436020,127,0,0,29113
S,1860,7440020,127,0,0,33246
S,1861,7444020,125,0,0,37245
S,1862,7448020,125,0,0,41630
S,1863,7452020,128,0,0,45762
S,1864,7456020,134,0,0,49835
S,1865,7460020,137,0,0,54021
S,1866,7464020,132,0,0,58347
S,1867,7468020,128,0,0,62542
S,1868,7472020,137,0,0,1059
S,1869,7476024,167,0,0,5280
S,1870,7480024,212,0,0,9520
S,1871,7484020,264,0,0,13377
S,1872,7488020,325,0,0,17523
S,1873,7492020,392,0,0,22303
S,1874,7496020,470,0,0,26530
S,1875,7500020,533,0,0,30144
S,1876,7504020,547,0,0,34193
S,1877,7508020,505,0,0,38634
S,1878,7512020,415,0,0,39279
S,1879,7516020,322,0,0,43283
S,1880,7520020,249,0,0,47303
S,1881,7524020,201,0,0,51542
S,1882,7528020,170,0,0,55766
S,1883,7532020,151,0,0,59978
S,1884,7536024,140,0,0,64058
S,1885,7540020,134,0,0,2716
S,1886,7544024,127,0,0,7050
S,1887,7548020,121,0,0,11041
S,1888,7552020,119,0,0,15216
S,1889,7556020,120,0,0,19678
S,1890,7560020,121,0,0,23612
S,1891,7564020,120,0,0,28060
S,1892,7568020,121,0,0,32250
S,1893,7572020,123,0,0,36185
S,1894,7576020,125,0,0,40636
S,1895,7580024,127,0,0,44563
S,1896,7584020,129,0,0,48782
S,1897,7588020,130,0,0,53036
S,1898,7592020,131,0,0,57294
S,1899,7596020,135,0,0,57451
S,1900,7600020,138,0,0,61441
S,1901,7604020,139,0,0,166
S,1902,7608024,140,0,0,4430
S,1903,7612020,140,0,0,8675
S,1904,7616020,144,0,0,12672
S,1905,7620020,148,0,0,16933
S,1906,7624020,148,0,0,21190
S,1907,7628020,149,0,0,25446
S,1908,7632020,150,0,0,29442
S,1909,7636020,155,0,0,33710
S,1910,7640020,160,0,0,38006
S,1911,7644020,160,0,0,42199
S,1912,7648020,161,0,0,46265
S,1913,7652020,163,0,0,50458
S,1914,7656024,166,0,0,54768
S,1915,7660020,167,0,0,58972
S,1916,7664020,169,0,0,63029
S,1917,7668020,173,0,0,1681
S,1918,7672020,177,0,0,5998
S,1919,7676024,182,0,0,10180
S,1920,7680020,187,0,0,14170
S,1921,7684020,189,0,0,14589
S,1922,7688024,192,0,0,18543
S,1923,7692020,197,0,0,22983
S,1924,7696020,202,0,0,27055
S,1925,7700020,206,0,0,30986
S,1926,7704020,206,0,0,35561
S,1927,7708020,205,0,0,39499
S,1928,7712020,209,0,0,43576
S,1929,7716024,213,0,0,48017
S,1930,7720020,214,0,0,52093
S,1931,7724020,213,0,0,56543
S,1932,7728020,212,0,0,60601
S,1933,7732020,214,0,0,64538
S,1934,7736020,217,0,0,3573
S,1935,7740020,219,0,0,7510
S,1936,7744020,218,0,0,11560
S,1937,7748020,215,0,0,16004
S,1938,7752020,214,0,0,20070
S,1939,7756020,216,0,0,24521
S,1940,7760020,215,0,0,28577
S,1941,7764020,214,0,0,32513
S,1942,7768020,213,0,0,32993
S,1943,7772020,212,0,0,36929
S,1944,7776020,212,0,0,41006
S,1945,7780020,213,0,0,45454
S,1946,7784020,213,0,0,49517
S,1947,7788020,212,0,0,53965
S,1948,7792020,214,0,0,58024
S,1949,7796020,216,0,0,61959
S,1950,7800020,218,0,0,999
S,1951,7804020,218,0,0,4934
S,1952,7808020,216,0,0,8987
S,1953,7812020,220,0,0,13502
S,1954,7816020,222,0,0,17503
S,1955,7820020,223,0,0,22015
S,1956,7824020,222,0,0,26009
S,1957,7828020,223,0,0,30009
S,1958,7832024,226,0,0,34539
S,1959,7836020,230,0,0,38466
S,1960,7840020,233,0,0,42530
S,1961,7844020,235,0,0,46977
S,1962,7848020,236,0,0,51045
S,1963,7852020,240,0,0,51416
S,1964,7856020,241,0,0,55486
S,1965,7860020,244,0,0,59418
S,1966,7864020,246,0,0,63995
S,1967,7868020,246,0,0,2389
S,1968,7872020,249,0,0,6437
S,1969,7876020,253,0,0,10880
S,1970,7880020,255,0,0,14945
S,1971,7884020,256,0,0,19007
S,1972,7888020,255,0,0,23463
S,1973,7892020,257,0,0,27384
S,1974,7896020,262,0,0,32028
S,1975,7900020,265,0,0,36274
S,1976,7904020,263,0,0,40403
S,1977,7908020,263,0,0,44146
S,1978,7912020,267,0,0,48285
S,1979,7916020,271,0,0,53048
S,1980,7920020,272,0,0,57152
S,1981,7924020,271,0,0,61438
S,1982,7928020,270,0,0,65052
S,1983,7932020,271,0,0,3773
S,1984,7936020,275,0,0,7870
S,1985,7940020,278,0,0,8474
S,1986,7944020,279,0,0,12792
S,1987,7948020,279,0,0,16473
S,1988,7952020,281,0,0,20528
S,1989,7956020,282,0,0,24722
S,1990,7960020,286,0,0,29557
S,1991,7964020,288,0,0,33770
S,1992,7968020,289,0,0,37764
S,1993,7972020,291,0,0,41511
S,1994,7976024,294,0,0,45773
S,1995,7980020,296,0,0,50542
S,1996,7984020,295,0,0,54534
S,1997,7988020,296,0,0,58792
S,1998,7992020,299,0,0,62536
S,1999,7996024,301,0,0,1248
S,2000,8000020,303,0,0,5265
S,2001,8004020,301,0,0,10034
S,2002,8008020,303,0,0,14291
S,2003,8012020,306,0,0,18031
S,2004,8016020,309,0,0,22031
S,2005,8020020,311,0,0,26284
S,2006,8024020,312,0,0,26944
S,2007,8028020,312,0,0,31201
S,2008,8032020,314,0,0,35212
S,2009,8036020,316,0,0,38955
S,2010,8040020,318,0,0,43210
S,2011,8044020,319,0,0,47978
S,2012,8048020,318,0,0,51980
S,2013,8052020,319,0,0,56236
S,2014,8056020,322,0,0,59954
S,2015,8060020,325,0,0,64148
S,2016,8064020,325,0,0,2762
S,2017,8068020,325,0,0,7531
S,2018,8072024,327,0,0,11654
S,2019,8076020,330,0,0,15398
S,2020,8080020,332,0,0,19527
S,2021,8084020,332,0,0,23782
S,2022,8088020,330,0,0,28419
S,2023,8092020,331,0,0,32675
S,2024,8096020,335,0,0,36808
S,2025,8100020,337,0,0,40567
S,2026,8104020,335,0,0,44682
S,2027,8108020,337,0,0,45365
S,2028,8112020,339,0,0,49488
S,2029,8116020,341,0,0,53751
S,2030,8120020,342,0,0,57367
S,2031,8124020,342,0,0,61622
S,2032,8128020,341,0,0,205
S,2033,8132020,342,0,0,4975
S,2034,8136020,345,0,0,9091
S,2035,8140020,347,0,0,12832
S,2036,8144020,348,0,0,16960
S,2037,8148020,347,0,0,21222
S,2038,8152020,348,0,0,25858
S,2039,8156020,352,0,0,30111
S,2040,8160024,354,0,0,34302
S,2041,8164020,354,0,0,37971
S,2042,8168020,356,0,0,42166
S,2043,8172020,360,0,0,46875
S,2044,8176020,366,0,0,51066
S,2045,8180020,371,0,0,55238
S,2046,8184020,372,0,0,58914
S,2047,8188024,369,0,0,63114
S,2048,8192020,368,0,0,2329
S,2049,8196020,371,0,0,1723
S,2050,8200020,376,0,0,5715
S,2051,8204020,380,0,0,10230
S,2052,8208020,377,0,0,14228
S,2053,8212020,372,0,0,18232
S,2054,8216020,369,0,0,21726
S,2055,8220020,369,0,0,25727
S,2056,8224024,366,0,0,29699
S,2057,8228024,362,0,0,34214
S,2058,8232020,359,0,0,38212
S,2059,8236020,358,0,0,41700
S,2060,8240020,356,0,0,45697
S,2061,8244020,352,0,0,49700
S,2062,8248020,346,0,0,54269
S,2063,8252020,345,0,0,58207
S,2064,8256020,347,0,0,62242
S,2065,8260020,347,0,0,128
S,2066,8264020,344,0,0,4192
S,2067,8268020,342,0,0,8655
S,2068,8272024,343,0,0,12709
S,2069,8276020,346,0,0,16645
S,2070,8280024,348,0,0,24300
S,2071,8284020,347,0,0,28230
S,2072,8288020,345,0,0,32299
S,2073,8292020,340,0,0,36743
S,2074,8296020,342,0,0,40806
S,2075,8300020,360,0,0,44281
S,2076,8304020,397,0,0,48251
S,2077,8308020,445,0,0,52458
S,2078,8312020,507,0,0,56655
S,2079,8316024,576,0,0,61017
S,2080,8320024,650,0,0,65228
S,2081,8324020,712,0,0,2338
S,2082,8328020,714,0,0,6595
S,2083,8332024,713,0,0,10349
S,2084,8336020,691,0,0,14460
S,2085,8340020,597,0,0,18491
S,2086,8344020,484,0,0,22633
S,2087,8348020,404,0,0,26808
S,2088,8352024,364,0,0,30755
S,2089,8356024,344,0,0,35254
S,2090,8360020,329,0,0,39240
S,2091,8364024,314,0,0,38550
S,2092,8368020,301,0,0,42730
S,2093,8372020,292,0,0,46658
S,2094,8376020,286,0,0,51099
S,2095,8380020,282,0,0,55102
S,2096,8384020,277,0,0,59214
S,2097,8388020,272,0,0,62698
S,2098,8392020,270,0,0,1256
S,2099,8396020,268,0,0,5451
S,2100,8400024,268,0,0,9504
S,2101,8404024,267,0,0,13702
S,2102,8408020,265,0,0,17003
S,2103,8412024,264,0,0,21191
S,2104,8416020,265,0,0,25253
S,2105,8420020,263,0,0,29450
S,2106,8424020,262,0,0,33768
S,2107,8428020,259,0,0,36940
S,2108,8432020,259,0,0,41003
S,2109,8436020,260,0,0,45197
S,2110,8440020,260,0,0,49518
S,2111,8444020,258,0,0,53705
S,2112,8448020,256,0,0,57812
S,2113,8452020,258,0,0,65143
S,2114,8456020,261,0,0,3730
S,2115,8460020,261,0,0,7987
S,2116,8464020,260,0,0,12117
S,2117,8468020,259,0,0,16371
S,2118,8472020,260,0,0,19479
S,2119,8476020,263,0,0,23733
S,2120,8480020,266,0,0,27863
S,2121,8484024,266,0,0,32122
S,2122,8488020,265,0,0,36246
S,2123,8492020,268,0,0,39474
S,2124,8496020,269,0,0,43604
S,2125,8500020,272,0,0,47848
S,2126,8504020,274,0,0,51977
S,2127,8508020,272,0,0,56234
S,2128,8512020,274,0,0,60375
S,2129,8516020,277,0,0,63601
S,2130,8520020,280,0,0,2204
S,2131,8524020,280,0,0,6461
S,2132,8528020,281,0,0,10587
S,2133,8532020,283,0,0,14840
S,2134,8536020,284,0,0,13852
S,2135,8540020,284,0,0,18109
S,2136,8544020,281,0,0,22231
S,2137,8548020,280,0,0,26487
S,2138,8552020,281,0,0,30613
S,2139,8556020,283,0,0,33846
S,2140,8560020,282,0,0,37968
S,2141,8564020,278,0,0,42237
S,2142,8568020,275,0,0,46363
S,2143,8572020,272,0,0,50617
S,2144,8576024,271,0,0,54773
S,2145,8580020,269,0,0,57946
S,2146,8584020,265,0,0,62141
S,2147,8588020,260,0,0,784
S,2148,8592024,257,0,0,4990
S,2149,8596020,257,0,0,9171
S,2150,8600020,257,0,0,12336
S,2151,8604020,255,0,0,16751
S,2152,8608020,251,0,0,20740
S,2153,8612020,250,0,0,24740
S,2154,8616020,250,0,0,28743
S,2155,8620020,249,0,0,36837
S,2156,8624020,246,0,0,40845
S,2157,8628020,245,0,0,44847
S,2158,8632020,246,0,0,48847
S,2159,8636020,247,0,0,52847
S,2160,8640020,248,0,0,56863
S,2161,8644020,247,0,0,60849
S,2162,8648020,248,0,0,64861
S,2163,8652024,248,0,0,3319
S,2164,8656024,250,0,0,7314
S,2165,8660020,250,0,0,11327
S,2166,8664020,249,0,0,15327
S,2167,8668020,249,0,0,19326
S,2168,8672020,250,0,0,23314
S,2169,8676020,253,0,0,27316
S,2170,8680020,255,0,0,31317
S,2171,8684020,254,0,0,35317
S,2172,8688020,251,0,0,39319
S,2173,8692020,252,0,0,43313
S,2174,8696020,256,0,0,47406
S,2175,8700020,257,0,0,51598
S,2176,8704020,256,0,0,55568
S,2177,8708024,254,0,0,55107
S,2178,8712020,253,0,0,59311
S,2179,8716020,255,0,0,62988
S,2180,8720024,256,0,0,1945
S,2181,8724020,255,0,0,5835
S,2182,8728020,253,0,0,9514
S,2183,8732020,255,0,0,13705
S,2184,8736020,257,0,0,17432
S,2185,8740020,256,0,0,21944
S,2186,8744020,255,0,0,25764
S,2187,8748020,254,0,0,29444
S,2188,8752020,255,0,0,33634
S,2189,8756020,255,0,0,37827
S,2190,8760020,255,0,0,41504
S,2191,8764024,253,0,0,45711
S,2192,8768020,252,0,0,49917
S,2193,8772020,253,0,0,53597
S,2194,8776020,255,0,0,57788
S,2195,8780020,254,0,0,61468
S,2196,8784020,253,0,0,123
S,2197,8788020,252,0,0,4315
S,2198,8792020,252,0,0,12088
S,2199,8796020,255,0,0,16282
S,2200,8800024,256,0,0,19974
S,2201,8804020,254,0,0,24149
S,2202,8808020,253,0,0,28341
S,2203,8812020,255,0,0,32022
S,2204,8816020,256,0,0,35982
S,2205,8820020,257,0,0,39982
S,2206,8824020,257,0,0,44493
S,2207,8828020,256,0,0,48493
S,2208,8832020,256,0,0,52530
S,2209,8836024,257,0,0,55966
S,2210,8840020,256,0,0,60016
S,2211,8844020,257,0,0,64464
S,2212,8848020,258,0,0,2997
S,2213,8852024,259,0,0,6937
S,2214,8856020,260,0,0,10481
S,2215,8860020,260,0,0,14416
S,2216,8864020,259,0,0,18488
S,2217,8868020,258,0,0,22936
S,2218,8872020,258,0,0,27003
S,2219,8876020,259,0,0,26331
S,2220,8880020,260,0,0,30395
S,2221,8884020,259,0,0,34333
S,2222,8888020,256,0,0,38909
S,2223,8892020,257,0,0,42845
S,2224,8896020,260,0,0,46887
S,2225,8900020,260,0,0,50310
S,2226,8904020,259,0,0,54370
S,2227,8908020,258,0,0,58818
S,2228,8912020,259,0,0,62884
S,2229,8916020,261,0,0,1292
S,2230,8920024,263,0,0,4833
S,2231,8924020,261,0,0,8782
S,2232,8928020,260,0,0,12832
S,2233,8932020,262,0,0,17283
S,2234,8936020,263,0,0,21345
S,2235,8940020,265,0,0,24782
S,2236,8944020,267,0,0,28843
S,2237,8948020,267,0,0,32778
S,2238,8952020,269,0,0,37359
S,2239,8956020,271,0,0,41292
S,2240,8960020,273,0,0,45389
S,2241,8964024,273,0,0,52960
S,2242,8968020,273,0,0,56847
S,2243,8972020,275,0,0,61356
S,2244,8976020,277,0,0,65485
S,2245,8980020,279,0,0,3951
S,2246,8984020,283,0,0,7296
S,2247,8988020,285,0,0,11303
S,2248,8992020,289,0,0,15476
S,2249,8996020,294,0,0,19922
S,2250,9000020,296,0,0,23871
S,2251,9004020,293,0,0,27283
S,2252,9008020,293,0,0,31476
S,2253,9012020,296,0,0,35416
S,2254,9016020,303,0,0,39868
S,2255,9020020,306,0,0,43776
S,2256,9024020,300,0,0,47969
S,2257,9028020,292,0,0,51400
S,2258,9032020,290,0,0,55341
S,2259,9036020,291,0,0,59789
S,2260,9040020,294,0,0,63983
S,2261,9044024,291,0,0,2372
S,2262,9048020,286,0,0,1686
S,2263,9052020,285,0,0,5684
S,2264,9056020,284,0,0,9818
S,2265,9060020,283,0,0,14332
S,2266,9064020,279,0,0,18195
S,2267,9068020,277,0,0,21680
S,2268,9072020,278,0,0,25812
S,2269,9076020,281,0,0,29818
S,2270,9080020,282,0,0,34202
S,2271,9084020,279,0,0,38198
S,2272,9088020,279,0,0,42345
S,2273,9092020,282,0,0,45765
S,2274,9096020,285,0,0,49697
S,2275,9100020,286,0,0,54147
S,2276,9104024,284,0,0,58346
S,2277,9108020,280,0,0,62275
S,2278,9112024,283,0,0,174
S,2279,9116024,306,0,0,4134
S,2280,9120020,347,0,0,8236
S,2281,9124024,395,0,0,12625
S,2282,9128020,451,0,0,16886
S,2283,9132020,515,0,0,23959
S,2284,9136020,586,0,0,28089
S,2285,9140020,657,0,0,32195
S,2286,9144020,694,0,0,35847
S,2287,9148020,679,0,0,40119
S,2288,9152020,610,0,0,44045
S,2289,9156020,509,0,0,48179
S,2290,9160020,418,0,0,52367
S,2291,9164020,356,0,0,56808
S,2292,9168020,318,0,0,60885
S,2293,9172024,295,0,0,64865
S,2294,9176020,280,0,0,2742
S,2295,9180020,269,0,0,6658
S,2296,9184020,258,0,0,10850
S,2297,9188020,252,0,0,14909
S,2298,9192020,249,0,0,19163
S,2299,9196024,249,0,0,22902
S,2300,9200020,249,0,0,26909
S,2301,9204020,248,0,0,31165
S,2302,9208020,247,0,0,34897
S,2303,9212024,248,0,0,39155
S,2304,9216020,251,0,0,43363
S,2305,9220020,252,0,0,42693
S,2306,9224020,251,0,0,46625
S,2307,9228020,250,0,0,51073
S,2308,9232024,251,0,0,55275
S,2309,9236020,255,0,0,59202
S,2310,9240024,258,0,0,62800
S,2311,9244020,258,0,0,1532
S,2312,9248024,259,0,0,5534
S,2313,9252020,262,0,0,9270
S,2314,9256020,265,0,0,13530
S,2315,9260020,267,0,0,17273
S,2316,9264020,267,0,0,21278
S,2317,9268020,267,0,0,25535
S,2318,9272020,269,0,0,29274
S,2319,9276020,271,0,0,33529
S,2320,9280024,272,0,0,37525
S,2321,9284020,274,0,0,41274
S,2322,9288020,276,0,0,45535
S,2323,9292020,279,0,0,49277
S,2324,9296020,282,0,0,53271
S,2325,9300020,283,0,0,57527
S,2326,9304020,284,0,0,65363
S,2327,9308020,285,0,0,4080
S,2328,9312020,289,0,0,8099
S,2329,9316020,294,0,0,11781
S,2330,9320020,296,0,0,16104
S,2331,9324020,298,0,0,19787
S,2332,9328020,300,0,0,23850
S,2333,9332020,305,0,0,28054
S,2334,9336020,313,0,0,31869
S,2335,9340020,318,0,0,36059
S,2336,9344020,319,0,0,40069
S,2337,9348020,320,0,0,43867
S,2338,9352020,323,0,0,48059
S,2339,9356020,325,0,0,51740
S,2340,9360020,324,0,0,55930
S,2341,9364020,322,0,0,60125
S,2342,9368020,321,0,0,63805
S,2343,9372020,321,0,0,2461
S,2344,9376020,323,0,0,6640
S,2345,9380024,322,0,0,10332
S,2346,9384020,323,0,0,14514
S,2347,9388020,321,0,0,14097
S,2348,9392020,321,0,0,18294
S,2349,9396020,322,0,0,22484
S,2350,9400020,320,0,0,26165
S,2351,9404020,316,0,0,30440
S,2352,9408020,313,0,0,34450
S,2353,9412020,312,0,0,38194
S,2354,9416024,312,0,0,42461
S,2355,9420020,311,0,0,46207
S,2356,9424020,308,0,0,50203
S,2357,9428024,304,0,0,54450
S,2358,9432020,305,0,0,58204
S,2359,9436020,308,0,0,62456
S,2360,9440020,309,0,0,905
S,2361,9444020,308,0,0,4649
S,2362,9448020,308,0,0,8906
S,2363,9452020,309,0,0,12650
S,2364,9456020,309,0,0,16653
S,2365,9460020,310,0,0,20911
S,2366,9464020,310,0,0,24652
S,2367,9468024,310,0,0,28897
S,2368,9472020,313,0,0,33021
S,2369,9476020,315,0,0,40798
S,2370,9480020,316,0,0,44986
S,2371,9484020,315,0,0,48668
S,2372,9488024,314,0,0,52854
S,2373,9492020,316,0,0,57053
S,2374,9496020,319,0,0,60733
S,2375,9500020,320,0,0,64995
S,2376,9504020,320,0,0,3469
S,2377,9508020,321,0,0,7213
S,2378,9512020,324,0,0,11467
S,2379,9516020,326,0,0,15208
S,2380,9520020,327,0,0,19214
S,2381,9524020,326,0,0,23470
S,2382,9528020,324,0,0,27215
S,2383,9532020,327,0,0,31469
S,2384,9536020,329,0,0,35484
S,2385,9540020,330,0,0,39230
S,2386,9544020,328,0,0,43487
S,2387,9548020,327,0,0,47217
S,2388,9552020,328,0,0,51225
S,2389,9556020,329,0,0,55481
S,2390,9560020,329,0,0,55130
S,2391,9564020,327,0,0,59381
S,2392,9568020,326,0,0,63387
S,2393,9572024,327,0,0,1588
S,2394,9576020,326,0,0,5850
S,2395,9580020,326,0,0,9595
S,2396,9584020,325,0,0,13599
S,2397,9588020,325,0,0,17854
S,2398,9592020,328,0,0,21584
S,2399,9596020,331,0,0,25842
S,2400,9600020,333,0,0,29867
S,2401,9604020,330,0,0,33549
S,2402,9608020,326,0,0,37858
S,2403,9612020,324,0,0,41537
S,2404,9616020,323,0,0,45601
S,2405,9620020,323,0,0,49792
S,2406,9624020,321,0,0,53601
S,2407,9628020,323,0,0,57794
S,2408,9632020,326,0,0,61864
S,2409,9636020,327,0,0,9
S,2410,9640020,325,0,0,4328
S,2411,9644024,323,0,0,12099
S,2412,9648020,322,0,0,16169
S,2413,9652024,324,0,0,20354
S,2414,9656020,326,0,0,24175
S,2415,9660020,327,0,0,28367
S,2416,9664020,326,0,0,32433
S,2417,9668020,325,0,0,36115
S,2418,9672020,325,0,0,40432
S,2419,9676020,326,0,0,44114
S,2420,9680020,329,0,0,48186
S,2421,9684020,329,0,0,52379
S,2422,9688020,329,0,0,56184
S,2423,9692020,331,0,0,60379
S,2424,9696024,332,0,0,64447
S,2425,9700020,332,0,0,2581
S,2426,9704020,330,0,0,6896
S,2427,9708020,329,0,0,10578
S,2428,9712020,331,0,0,14647
S,2429,9716020,334,0,0,18835
S,2430,9720020,334,0,0,22640
S,2431,9724020,331,0,0,26836
S,2432,9728020,332,0,0,30796
S,2433,9732020,335,0,0,30702
S,2434,9736020,337,0,0,34579
S,2435,9740020,337,0,0,38578
S,2436,9744020,336,0,0,42708
S,2437,9748020,336,0,0,46709
S,2438,9752024,338,0,0,50584
S,2439,9756020,340,0,0,54579
S,2440,9760020,340,0,0,58716
S,2441,9764020,340,0,0,62717
S,2442,9768024,339,0,0,1044
S,2443,9772024,340,0,0,5042
S,2444,9776020,344,0,0,9173
S,2445,9780020,347,0,0,13175
S,2446,9784020,350,0,0,17041
S,2447,9788020,352,0,0,21006
S,2448,9792020,355,0,0,25202
S,2449,9796020,360,0,0,29144
S,2450,9800020,362,0,0,33081
S,2451,9804020,360,0,0,37018
S,2452,9808020,359,0,0,41202
S,2453,9812020,365,0,0,45145
S,2454,9816020,373,0,0,53154
S,2455,9820020,373,0,0,57091
S,2456,9824020,368,0,0,61289
S,2457,9828024,362,0,0,65246
S,2458,9832024,361,0,0,3645
S,2459,9836024,362,0,0,7583
S,2460,9840020,360,0,0,11766
S,2461,9844020,355,0,0,15708
S,2462,9848020,352,0,0,19644
S,2463,9852020,352,0,0,23581
S,2464,9856020,352,0,0,27714
S,2465,9860020,350,0,0,31709
S,2466,9864020,347,0,0,35643
S,2467,9868020,345,0,0,39576
S,2468,9872020,345,0,0,43775
S,2469,9876020,348,0,0,47707
S,2470,9880020,348,0,0,51640
S,2471,9884020,346,0,0,55583
S,2472,9888020,346,0,0,59760
S,2473,9892020,348,0,0,63703
S,2474,9896024,351,0,0,2106
S,2475,9900020,354,0,0,1962
S,2476,9904020,353,0,0,6094
S,2477,9908020,348,0,0,10066
S,2478,9912020,349,0,0,14000
S,2479,9916020,367,0,0,17955
S,2480,9920024,401,0,0,22190
S,2481,9924020,450,0,0,25936
S,2482,9928020,510,0,0,30095
S,2483,9932020,580,0,0,34708
S,2484,9936020,657,0,0,38694
S,2485,9940020,713,0,0,42975
S,2486,9944020,715,0,0,45118
S,2487,9948020,714,0,0,49310
S,2488,9952024,698,0,0,53389
S,2489,9956020,609,0,0,57851
S,2490,9960020,498,0,0,62091
S,2491,9964020,418,0,0,373
S,2492,9968020,381,0,0,4557
S,2493,9972020,368,0,0,8545
S,2494,9976020,360,0,0,12442
S,2495,9980020,348,0,0,16399
S,2496,9984024,339,0,0,20499
S,2497,9988024,333,0,0,28588
S,2498,9992020,331,0,0,32581
S,2499,9996020,331,0,0,36580
S,2500,10000020,330,0,0,40578
S,2501,10004020,329,0,0,44576
S,2502,10008020,328,0,0,48578
S,2503,10012020,330,0,0,52577
S,2504,10016020,330,0,0,56590
S,2505,10020020,332,0,0,60585
S,2506,10024020,334,0,0,64584
S,2507,10028024,335,0,0,3045
S,2508,10032020,336,0,0,7057
S,2509,10036020,337,0,0,11057
S,2510,10040020,339,0,0,15056
S,2511,10044020,337,0,0,19059
S,2512,10048024,336,0,0,23041
S,2513,10052020,339,0,0,27055
S,2514,10056024,342,0,0,31045
S,2515,10060020,343,0,0,35049
S,2516,10064020,342,0,0,39055
S,2517,10068020,342,0,0,43054
S,2518,10072020,346,0,0,42945
S,2519,10076024,346,0,0,46956
S,2520,10080020,344,0,0,50957
S,2521,10084024,343,0,0,54959
S,2522,10088020,345,0,0,58958
S,2523,10092020,348,0,0,62954
S,2524,10096020,349,0,0,1423
S,2525,10100020,350,0,0,5421
S,2526,10104020,350,0,0,9422
S,2527,10108020,352,0,0,13393
S,2528,10112020,354,0,0,17420
S,2529,10116020,356,0,0,21419
S,2530,10120024,359,0,0,25415
S,2531,10124020,361,0,0,29412
S,2532,10128020,363,0,0,33409
S,2533,10132020,367,0,0,37412
S,2534,10136020,370,0,0,41434
S,2535,10140020,372,0,0,45437
S,2536,10144020,372,0,0,49426
S,2537,10148020,372,0,0,53427
S,2538,10152020,373,0,0,57425
S,2539,10156020,374,0,0,65523
S,2540,10160020,374,0,0,3989
S,2541,10164020,370,0,0,7984
S,2542,10168020,369,0,0,11984
S,2543,10172020,371,0,0,15987
S,2544,10176020,371,0,0,19980
S,2545,10180024,369,0,0,23971
S,2546,10184020,365,0,0,27984
S,2547,10188020,363,0,0,31991
S,2548,10192020,362,0,0,35985
S,2549,10196020,361,0,0,39987
S,2550,10200020,360,0,0,43985
S,2551,10204020,357,0,0,47997
S,2552,10208020,355,0,0,51988
S,2553,10212020,353,0,0,55991
S,2554,10216020,352,0,0,59989
S,2555,10220020,349,0,0,63945
S,2556,10224020,345,0,0,2477
S,2557,10228020,342,0,0,6403
S,2558,10232020,342,0,0,10464
S,2559,10236020,342,0,0,14401
S,2560,10240020,340,0,0,19420
S,2561,10244020,337,0,0,17528
S,2562,10248020,335,0,0,21637
S,2563,10252020,336,0,0,25915
S,2564,10256020,337,0,0,30045
S,2565,10260020,336,0,0,34301
S,2566,10264020,333,0,0,38403
S,2567,10268020,335,0,0,42656
S,2568,10272020,336,0,0,46800
S,2569,10276020,335,0,0,51054
S,2570,10280020,333,0,0,55183
S,2571,10284020,331,0,0,57384
S,2572,10288020,330,0,0,61518
S,2573,10292020,331,0,0,239
S,2574,10296020,333,0,0,4362
S,2575,10300020,332,0,0,8618
S,2576,10304020,330,0,0,12755
S,2577,10308020,328,0,0,17008
S,2578,10312020,326,0,0,21149
S,2579,10316020,328,0,0,25394
S,2580,10320020,326,0,0,29531
S,2581,10324020,322,0,0,33790
S,2582,10328020,319,0,0,40032
S,2583,10332020,317,0,0,44227
S,2584,10336020,316,0,0,48301
S,2585,10340020,314,0,0,52490
S,2586,10344020,311,0,0,56804
S,2587,10348020,309,0,0,60999
S,2588,10352020,309,0,0,65056
S,2589,10356020,307,0,0,3716
S,2590,10360020,303,0,0,8059
S,2591,10364020,300,0,0,12249
S,2592,10368024,299,0,0,16269
S,2593,10372020,300,0,0,18471
S,2594,10376020,299,0,0,22723
S,2595,10380020,296,0,0,26977
S,2596,10384020,292,0,0,30986
S,2597,10388020,290,0,0,35245
S,2598,10392020,291,0,0,39503
S,2599,10396020,292,0,0,43753
S,2600,10400024,290,0,0,47756
S,2601,10404020,287,0,0,51996
S,2602,10408020,284,0,0,56316
S,2603,10412020,283,0,0,54362
S,2604,10416020,284,0,0,58426
S,2605,10420020,281,0,0,62622
S,2606,10424020,277,0,0,1392
S,2607,10428020,273,0,0,5589
S,2608,10432020,273,0,0,9642
S,2609,10436020,272,0,0,13834
S,2610,10440020,269,0,0,18164
S,2611,10444020,267,0,0,22355
S,2612,10448024,265,0,0,26426
S,2613,10452020,265,0,0,30615
S,2614,10456020,264,0,0,32885
S,2615,10460020,261,0,0,37081
S,2616,10464020,259,0,0,41136
S,2617,10468020,256,0,0,45330
S,2618,10472020,258,0,0,49651
S,2619,10476020,257,0,0,53841
S,2620,10480020,255,0,0,58312
S,2621,10484024,252,0,0,62310
S,2622,10488020,249,0,0,691
S,2623,10492024,247,0,0,4624
S,2624,10496020,247,0,0,8707
S,2625,10500020,246,0,0,15779
S,2626,10504020,243,0,0,19781
S,2627,10508020,239,0,0,23800
S,2628,10512020,240,0,0,27776
S,2629,10516020,239,0,0,31806
S,2630,10520020,237,0,0,36831
S,2631,10524020,233,0,0,40826
S,2632,10528020,230,0,0,44826
S,2633,10532020,231,0,0,48826
S,2634,10536020,231,0,0,52825
S,2635,10540020,229,0,0,55802
S,2636,10544024,226,0,0,59798
S,2637,10548020,224,0,0,63801
S,2638,10552020,224,0,0,2267
S,2639,10556020,223,0,0,6213
S,2640,10560020,221,0,0,10296
S,2641,10564020,220,0,0,15256
S,2642,10568020,219,0,0,19324
S,2643,10572020,219,0,0,23261
S,2644,10576020,220,0,0,27325
S,2645,10580020,219,0,0,31259
S,2646,10584020,218,0,0,30201
S,2647,10588020,218,0,0,34136
S,2648,10592020,222,0,0,38195
S,2649,10596020,226,0,0,42158
S,2650,10600020,226,0,0,46157
S,2651,10604020,221,0,0,51155
S,2652,10608020,217,0,0,55216
S,2653,10612020,221,0,0,59157
S,2654,10616024,227,0,0,63172
S,2655,10620020,226,0,0,1643
S,2656,10624020,218,0,0,5644
S,2657,10628024,209,0,0,8618
S,2658,10632020,206,0,0,12634
S,2659,10636020,209,0,0,16612
S,2660,10640020,207,0,0,20637
S,2661,10644020,199,0,0,24628
S,2662,10648020,192,0,0,29648
S,2663,10652020,189,0,0,33548
S,2664,10656020,187,0,0,37733
S,2665,10660020,186,0,0,41669
S,2666,10664020,180,0,0,45608
S,2667,10668020,176,0,0,52621
S,2668,10672020,175,0,0,56821
S,2669,10676020,175,0,0,60756
S,2670,10680020,172,0,0,64692
S,2671,10684020,169,0,0,3089
S,2672,10688020,168,0,0,7279
S,2673,10692024,169,0,0,12227
S,2674,10696020,170,0,0,16175
S,2675,10700020,171,0,0,20111
S,2676,10704020,166,0,0,24293
S,2677,10708020,162,0,0,28224
S,2678,10712020,165,0,0,31140
S,2679,10716020,187,0,0,35099
S,2680,10720024,225,0,0,39202
S,2681,10724020,271,0,0,43361
S,2682,10728020,327,0,0,47562
S,2683,10732020,390,0,0,51882
S,2684,10736020,461,0,0,55942
S,2685,10740024,531,0,0,59893
S,2686,10744024,569,0,0,63548
S,2687,10748020,554,0,0,2181
S,2688,10752020,484,0,0,7124
S,2689,10756020,384,0,0,5137
S,2690,10760024,294,0,0,9304
S,2691,10764020,231,0,0,13364
S,2692,10768020,191,0,0,17419
S,2693,10772020,165,0,0,21680
S,2694,10776020,147,0,0,26469
S,2695,10780020,135,0,0,30672
S,2696,10784020,126,0,0,34630
S,2697,10788020,118,0,0,38639
S,2698,10792024,115,0,0,42501
S,2699,10796020,113,0,0,45482
S,2700,10800020,111,0,0,49619
S,2701,10804020,107,0,0,53622
S,2702,10808020,108,0,0,57490
S,2703,10812020,110,0,0,61489
S,2704,10816024,111,0,0,66
S,2705,10820020,110,0,0,5102
S,2706,10824020,107,0,0,8968
S,2707,10828024,106,0,0,12964
S,2708,10832020,109,0,0,17096
S,2709,10836020,111,0,0,21099
S,2710,10840020,110,0,0,28041
S,2711,10844020,109,0,0,32043
S,2712,10848020,108,0,0,36165
S,2713,10852020,108,0,0,40164
S,2714,10856020,110,0,0,44037
S,2715,10860020,111,0,0,49061
S,2716,10864020,110,0,0,53187
S,2717,10868020,110,0,0,57186
S,2718,10872024,111,0,0,61068
S,2719,10876020,115,0,0,65085
S,2720,10880020,115,0,0,3681
S,2721,10884020,115,0,0,6592
S,2722,10888024,115,0,0,10543
S,2723,10892020,117,0,0,14468
S,2724,10896020,119,0,0,18657
S,2725,10900020,119,0,0,22592
S,2726,10904020,121,0,0,27565
S,2727,10908020,123,0,0,31502
S,2728,10912020,124,0,0,35686
S,2729,10916020,126,0,0,39621
S,2730,10920024,126,0,0,43562
S,2731,10924020,127,0,0,42374
S,2732,10928020,130,0,0,46364
S,2733,10932020,134,0,0,50617
S,2734,10936020,139,0,0,54359
S,2735,10940024,140,0,0,58621
S,2736,10944020,138,0,0,62600
S,2737,10948020,137,0,0,1835
S,2738,10952020,139,0,0,6090
S,2739,10956020,144,0,0,9840
S,2740,10960020,146,0,0,13845
S,2741,10964020,144,0,0,18102
S,2742,10968020,141,0,0,20808
S,2743,10972020,142,0,0,25066
S,2744,10976020,144,0,0,29083
S,2745,10980020,144,0,0,32826
S,2746,10984020,142,0,0,37063
S,2747,10988020,140,0,0,41828
S,2748,10992020,140,0,0,45827
S,2749,10996020,140,0,0,50082
S,2750,11000020,136,0,0,53829
S,2751,11004024,133,0,0,58085
S,2752,11008020,131,0,0,62192
S,2753,11012020,131,0,0,3422
S,2754,11016020,130,0,0,7612
S,2755,11020020,127,0,0,11488
S,2756,11024020,125,0,0,15493
S,2757,11028020,124,0,0,19493
S,2758,11032020,124,0,0,24518
S,2759,11036024,126,0,0,28521
S,2760,11040024,127,0,0,32519
S,2761,11044020,124,0,0,36521
S,2762,11048024,122,0,0,40512
S,2763,11052020,123,0,0,43500
S,2764,11056020,124,0,0,47500
S,2765,11060024,123,0,0,51494
S,2766,11064020,121,0,0,55499
S,2767,11068020,120,0,0,59499
S,2768,11072024,121,0,0,63513
S,2769,11076020,123,0,0,2999
S,2770,11080020,124,0,0,6995
S,2771,11084020,123,0,0,10997
S,2772,11088020,124,0,0,14997
S,2773,11092020,127,0,0,18999
S,2774,11096020,131,0,0,17704
S,2775,11100020,131,0,0,21897
S,2776,11104024,130,0,0,26091
S,2777,11108020,128,0,0,29764
S,2778,11112020,130,0,0,33957
S,2779,11116020,132,0,0,38658
S,2780,11120020,133,0,0,42852
S,2781,11124024,133,0,0,47049
S,2782,11128020,133,0,0,50726
S,2783,11132020,136,0,0,54922
S,2784,11136020,138,0,0,59095
S,2785,11140020,137,0,0,61813
S,2786,11144024,136,0,0,408
S,2787,11148020,135,0,0,4154
S,2788,11152020,138,0,0,8272
S,2789,11156020,139,0,0,12528
S,2790,11160020,139,0,0,17171
S,2791,11164020,139,0,0,21426
S,2792,11168020,139,0,0,25565
S,2793,11172020,141,0,0,29306
S,2794,11176020,142,0,0,33434
S,2795,11180024,141,0,0,40244
S,2796,11184024,140,0,0,44370
S,2797,11188020,141,0,0,48638
S,2798,11192020,143,0,0,52255
S,2799,11196024,145,0,0,56492
S,2800,11200024,146,0,0,60624
S,2801,11204020,146,0,0,65405
S,2802,11208020,146,0,0,3999
S,2803,11212020,148,0,0,7736
S,2804,11216020,149,0,0,11870
S,2805,11220020,149,0,0,16127
S,2806,11224020,149,0,0,18716
S,2807,11228020,149,0,0,22973
S,2808,11232020,152,0,0,27103
S,2809,11236020,155,0,0,30845
S,2810,11240020,155,0,0,34974
S,2811,11244020,152,0,0,39740
S,2812,11248020,153,0,0,43866
S,2813,11252020,157,0,0,48127
S,2814,11256020,159,0,0,51742
S,2815,11260020,161,0,0,55937
S,2816,11264020,162,0,0,60189
S,2817,11268020,163,0,0,58557
S,2818,11272020,165,0,0,62552
S,2819,11276020,169,0,0,1522
S,2820,11280020,171,0,0,5527
S,2821,11284020,170,0,0,9527
S,2822,11288020,170,0,0,14036
S,2823,11292020,173,0,0,18034
S,2824,11296020,176,0,0,22016
S,2825,11300020,178,0,0,26531
S,2826,11304024,180,0,0,30538
S,2827,11308024,181,0,0,33002
S,2828,11312020,184,0,0,37004
S,2829,11316020,187,0,0,41006
S,2830,11320020,188,0,0,45514
S,2831,11324020,188,0,0,49515
S,2832,11328024,189,0,0,53529
S,2833,11332020,193,0,0,58056
S,2834,11336024,197,0,0,61987
S,2835,11340020,198,0,0,908
S,2836,11344020,196,0,0,5097
S,2837,11348020,198,0,0,9034
S,2838,11352020,201,0,0,15526
S,2839,11356020,204,0,0,19458
S,2840,11360024,205,0,0,23648
S,2841,11364020,206,0,0,28110
S,2842,11368020,208,0,0,32051
S,2843,11372020,210,0,0,36496
S,2844,11376020,215,0,0,40690
S,2845,11380024,216,0,0,44624
S,2846,11384024,218,0,0,49073
S,2847,11388020,221,0,0,53019
S,2848,11392020,226,0,0,57211
S,2849,11396020,232,0,0,59600
S,2850,11400020,236,0,0,63543
S,2851,11404024,239,0,0,2458
S,2852,11408020,241,0,0,6639
S,2853,11412020,242,0,0,10573
S,2854,11416020,244,0,0,15016
S,2855,11420020,248,0,0,18949
S,2856,11424024,256,0,0,23454
S,2857,11428020,261,0,0,27190
S,2858,11432020,260,0,0,31444
S,2859,11436020,255,0,0,29838
S,2860,11440020,251,0,0,34029
S,2861,11444024,251,0,0,37952
S,2862,11448020,254,0,0,42410
S,2863,11452024,254,0,0,46343
S,2864,11456020,254,0,0,50548
S,2865,11460020,253,0,0,54998
S,2866,11464020,251,0,0,58931
S,2867,11468020,248,0,0,63377
S,2868,11472020,248,0,0,2039
S,2869,11476020,250,0,0,5972
S,2870,11480020,249,0,0,8372
S,2871,11484020,248,0,0,12308
S,2872,11488020,248,0,0,16507
S,2873,11492020,251,0,0,20953
S,2874,11496020,257,0,0,24768
S,2875,11500020,258,0,0,29538
S,2876,11504020,258,0,0,33541
S,2877,11508024,260,0,0,37806
S,2878,11512024,260,0,0,41549
S,2879,11516020,260,0,0,45792
S,2880,11520020,261,0,0,49918
S,2881,11524020,278,0,0,56652
S,2882,11528020,314,0,0,60803
S,2883,11532020,365,0,0,64629
S,2884,11536020,425,0,0,3273
S,2885,11540024,491,0,0,7206
S,2886,11544020,567,0,0,11285
S,2887,11548020,646,0,0,15365
S,2888,11552020,692,0,0,19544
S,2889,11556020,681,0,0,24036
S,2890,11560020,610,0,0,28108
S,2891,11564020,509,0,0,31218
S,2892,11568024,419,0,0,35271
S,2893,11572020,360,0,0,39329
S,2894,11576020,327,0,0,43117
S,2895,11580020,306,0,0,47289
S,2896,11584024,288,0,0,51416
S,2897,11588020,275,0,0,56134
S,2898,11592024,270,0,0,60340
S,2899,11596020,268,0,0,64027
S,2900,11600020,266,0,0,2683
S,2901,11604020,266,0,0,6874
S,2902,11608020,267,0,0,5432
S,2903,11612020,270,0,0,9628
S,2904,11616020,273,0,0,13804
S,2905,11620020,275,0,0,17487
S,2906,11624020,275,0,0,21676
S,2907,11628020,273,0,0,26383
S,2908,11632020,275,0,0,30570
S,2909,11636024,278,0,0,34754
S,2910,11640020,281,0,0,38434
S,2911,11644024,284,0,0,42634
S,2912,11648020,285,0,0,46808
S,2913,11652020,288,0,0,49476
S,2914,11656020,291,0,0,53668
S,2915,11660020,292,0,0,57346
S,2916,11664024,293,0,0,61544
S,2917,11668020,295,0,0,196
S,2918,11672020,299,0,0,4907
S,2919,11676020,302,0,0,9103
S,2920,11680020,302,0,0,13280
S,2921,11684020,303,0,0,16960
S,2922,11688020,305,0,0,21181
S,2923,11692020,311,0,0,27930
S,2924,11696020,315,0,0,32113
S,2925,11700020,317,0,0,36310
S,2926,11704020,318,0,0,39990
S,2927,11708020,320,0,0,44265
S,2928,11712020,324,0,0,48274
S,2929,11716020,328,0,0,53055
S,2930,11720020,330,0,0,57310
S,2931,11724024,333,0,0,61044
S,2932,11728020,338,0,0,65024
S,2933,11732024,343,0,0,3753
S,2934,11736020,347,0,0,6474
S,2935,11740020,351,0,0,10735
S,2936,11744024,353,0,0,14770
S,2937,11748020,354,0,0,18460
S,2938,11752024,357,0,0,22772
S,2939,11756024,361,0,0,27481
S,2940,11760020,362,0,0,31537
S,2941,11764024,363,0,0,35741
S,2942,11768020,364,0,0,39541
S,2943,11772020,367,0,0,43735
S,2944,11776020,370,0,0,47701
S,2945,11780020,371,0,0,46581
S,2946,11784020,369,0,0,50452
S,2947,11788024,370,0,0,54458
S,2948,11792024,374,0,0,58585
S,2949,11796024,375,0,0,62585
S,2950,11800020,373,0,0,1939
S,2951,11804020,370,0,0,5941
S,2952,11808020,369,0,0,10073
S,2953,11812020,370,0,0,14075
S,2954,11816020,370,0,0,17944
S,2955,11820020,368,0,0,20923
S,2956,11824020,365,0,0,25025
S,2957,11828024,365,0,0,29036
S,2958,11832020,367,0,0,32897
S,2959,11836024,367,0,0,36908
S,2960,11840020,367,0,0,41055
S,2961,11844020,365,0,0,46076
S,2962,11848024,366,0,0,49936
S,2963,11852020,370,0,0,53921
S,2964,11856024,372,0,0,58060
S,2965,11860020,370,0,0,62055
S,2966,11864024,369,0,0,3466
S,2967,11868020,370,0,0,7460
S,2968,11872020,373,0,0,11596
S,2969,11876020,375,0,0,15599
S,2970,11880020,377,0,0,19458
S,2971,11884020,377,0,0,24483
S,2972,11888020,381,0,0,28608
S,2973,11892024,385,0,0,32657
S,2974,11896020,387,0,0,36476
S,2975,11900020,387,0,0,40669
S,2976,11904020,387,0,0,44674
S,2977,11908020,388,0,0,47396
S,2978,11912020,390,0,0,51653
S,2979,11916020,391,0,0,55397
S,2980,11920020,392,0,0,59405
S,2981,11924020,391,0,0,63651
S,2982,11928020,392,0,0,2892
S,2983,11932020,393,0,0,7148
S,2984,11936020,397,0,0,11143
S,2985,11940020,398,0,0,14885
S,2986,11944020,398,0,0,19142
S,2987,11948020,398,0,0,17767
S,2988,11952024,400,0,0,21778
S,2989,11956020,402,0,0,26045
S,2990,11960020,402,0,0,29790
S,2991,11964020,401,0,0,34044
S,2992,11968020,401,0,0,38019
S,2993,11972020,403,0,0,42784
S,2994,11976024,404,0,0,47048
S,2995,11980024,404,0,0,50793
S,2996,11984020,403,0,0,54789
S,2997,11988020,405,0,0,59042
S,2998,11992020,408,0,0,61772
S,2999,11996024,410,0,0,482
S,3000,12000020,408,0,0,4483
S,3001,12004020,406,0,0,8236
S,3002,12008020,407,0,0,12494
S,3003,12012020,411,0,0,17251
S,3004,12016024,415,0,0,21260
S,3005,12020020,416,0,0,25502
S,3006,12024020,415,0,0,29250
S,3007,12028020,415,0,0,33507
S,3008,12032020,415,0,0,37628
S,3009,12036020,419,0,0,44385
S,3010,12040024,421,0,0,48520
S,3011,12044020,421,0,0,52261
S,3012,12048020,421,0,0,56386
S,3013,12052020,423,0,0,60641
S,3014,12056020,426,0,0,65295
S,3015,12060020,426,0,0,4001
S,3016,12064020,426,0,0,8142
S,3017,12068020,425,0,0,11884
S,3018,12072020,427,0,0,16013
S,3019,12076020,429,0,0,18730
S,3020,12080020,426,0,0,22858
S,3021,12084024,426,0,0,27111
S,3022,12088020,427,0,0,30729
S,3023,12092020,430,0,0,34989
S,3024,12096020,432,0,0,39116
S,3025,12100020,431,0,0,43890
S,3026,12104020,430,0,0,48016
S,3027,12108020,431,0,0,51760
S,3028,12112020,434,0,0,55882
S,3029,12116020,437,0,0,60140
S,3030,12120020,437,0,0,58639
S,3031,12124020,437,0,0,62894
S,3032,12128020,437,0,0,1472
S,3033,12132020,440,0,0,5228
S,3034,12136020,445,0,0,9354
S,3035,12140020,445,0,0,14123
S,3036,12144020,444,0,0,18253
S,3037,12148024,445,0,0,22497
S,3038,12152024,448,0,0,26239
S,3039,12156020,449,0,0,30419
S,3040,12160020,448,0,0,34445
S,3041,12164020,449,0,0,37165
S,3042,12168020,455,0,0,41416
S,3043,12172020,460,0,0,45154
S,3044,12176024,464,0,0,49173
S,3045,12180020,465,0,0,53433
S,3046,12184020,467,0,0,58200
S,3047,12188020,466,0,0,62456
S,3048,12192020,468,0,0,914
S,3049,12196020,474,0,0,4669
S,3050,12200024,480,0,0,8936
S,3051,12204020,483,0,0,15686
S,3052,12208024,481,0,0,19759
S,3053,12212020,476,0,0,23999
S,3054,12216020,474,0,0,27738
S,3055,12220020,473,0,0,31992
S,3056,12224020,471,0,0,35977
S,3057,12228020,467,0,0,40748
S,3058,12232020,468,0,0,45000
S,3059,12236024,469,0,0,48740
S,3060,12240020,467,0,0,52745
S,3061,12244020,463,0,0,57012
S,3062,12248020,461,0,0,59733
S,3063,12252020,461,0,0,63988
S,3064,12256020,464,0,0,2439
S,3065,12260020,463,0,0,6201
S,3066,12264024,461,0,0,10452
S,3067,12268020,460,0,0,15224
S,3068,12272020,461,0,0,19230
S,3069,12276020,462,0,0,23484
S,3070,12280020,464,0,0,27201
S,3071,12284020,465,0,0,31457
S,3072,12288020,465,0,0,36222
S,3073,12292020,463,0,0,33473
S,3074,12296020,462,0,0,37411
S,3075,12300020,473,0,0,41877
S,3076,12304024,502,0,0,46033
S,3077,12308024,547,0,0,49317
S,3078,12312024,606,0,0,54075
S,3079,12316020,674,0,0,58218
S,3080,12320020,715,0,0,62316
S,3081,12324024,717,0,0,704
S,3082,12328020,718,0,0,4652
S,3083,12332020,718,0,0,9613
S,3084,12336020,718,0,0,13802
S,3085,12340020,717,0,0,17736
S,3086,12344020,716,0,0,21674
S,3087,12348024,691,0,0,25720
S,3088,12352020,586,0,0,29938
S,3089,12356020,493,0,0,34036
S,3090,12360024,448,0,0,37942
S,3091,12364024,441,0,0,42478
S,3092,12368020,445,0,0,46465
S,3093,12372020,446,0,0,50467
S,3094,12376020,441,0,0,56007
S,3095,12380024,436,0,0,60007
S,3096,12384020,432,0,0,64000
S,3097,12388020,432,0,0,2976
S,3098,12392020,434,0,0,6977
S,3099,12396020,436,0,0,10470
S,3100,12400020,436,0,0,14465
S,3101,12404024,434,0,0,18474
S,3102,12408024,432,0,0,22987
S,3103,12412020,434,0,0,26980
S,3104,12416020,437,0,0,31036
S,3105,12420024,437,0,0,36497
S,3106,12424024,433,0,0,40566
S,3107,12428024,435,0,0,45013
S,3108,12432020,437,0,0,49080
S,3109,12436024,439,0,0,53015
S,3110,12440020,438,0,0,56569
S,3111,12444020,437,0,0,60507
S,3112,12448020,438,0,0,64567
S,3113,12452024,439,0,0,3480
S,3114,12456020,438,0,0,7542
S,3115,12460020,437,0,0,4820
S,3116,12464020,436,0,0,8882
S,3117,12468020,437,0,0,12818
S,3118,12472020,439,0,0,17395
S,3119,12476020,442,0,0,21343
S,3120,12480020,442,0,0,25376
S,3121,12484020,439,0,0,28812
S,3122,12488024,439,0,0,32867
S,3123,12492020,441,0,0,37312
S,3124,12496020,444,0,0,41378
S,3125,12500024,445,0,0,45326
S,3126,12504024,444,0,0,50924
S,3127,12508020,446,0,0,54851
S,3128,12512020,450,0,0,58960
S,3129,12516020,453,0,0,63478
S,3130,12520020,451,0,0,1810
S,3131,12524020,449,0,0,5297
S,3132,12528020,452,0,0,9427
S,3133,12532020,456,0,0,13438
S,3134,12536020,457,0,0,17820
S,3135,12540020,456,0,0,21820
S,3136,12544020,453,0,0,25902
S,3137,12548020,451,0,0,31369
S,3138,12552024,451,0,0,35430
S,3139,12556020,453,0,0,39885
S,3140,12560020,451,0,0,43948
S,3141,12564024,447,0,0,47997
S,3142,12568020,445,0,0,51344
S,3143,12572020,442,0,0,55350
S,3144,12576020,442,0,0,59481
S,3145,12580020,437,0,0,63991
S,3146,12584020,433,0,0,2415
S,3147,12588020,430,0,0,7889
S,3148,12592020,429,0,0,11957
S,3149,12596020,428,0,0,15893
S,3150,12600024,424,0,0,20478
S,3151,12604020,420,0,0,24415
S,3152,12608020,419,0,0,28455
S,3153,12612020,418,0,0,31879
S,3154,12616020,416,0,0,35942
S,3155,12620024,413,0,0,40438
S,3156,12624020,411,0,0,44443
S,3157,12628020,410,0,0,48443
S,3158,12632020,410,0,0,45784
S,3159,12636020,410,0,0,49785
S,3160,12640020,407,0,0,53787
S,3161,12644020,403,0,0,58302
S,3162,12648020,401,0,0,62303
S,3163,12652024,403,0,0,241
S,3164,12656020,404,0,0,4253
S,3165,12660020,403,0,0,8251
S,3166,12664020,402,0,0,12761
S,3167,12668020,399,0,0,16741
S,3168,12672020,399,0,0,20794
S,3169,12676020,400,0,0,26244
S,3170,12680020,397,0,0,30330
S,3171,12684020,394,0,0,34780
S,3172,12688020,393,0,0,38840
S,3173,12692020,393,0,0,42777
S,3174,12696020,393,0,0,46330
S,3175,12700020,390,0,0,50260
S,3176,12704020,386,0,0,54335
S,3177,12708020,385,0,0,58781
S,3178,12712020,386,0,0,62845
S,3179,12716020,386,0,0,2783
S,3180,12720020,380,0,0,6726
S,3181,12724020,377,0,0,10978
S,3182,12728020,376,0,0,15104
S,3183,12732020,377,0,0,19360
S,3184,12736020,375,0,0,23505
S,3185,12740020,373,0,0,26738
S,3186,12744020,369,0,0,30869
S,3187,12748020,367,0,0,35114
S,3188,12752020,367,0,0,39245
S,3189,12756020,365,0,0,43502
S,3190,12760020,360,0,0,48648
S,3191,12764020,356,0,0,52901
S,3192,12768020,356,0,0,57034
S,3193,12772020,360,0,0,61287
S,3194,12776020,360,0,0,65412
S,3195,12780020,356,0,0,3112
S,3196,12784020,352,0,0,7243
S,3197,12788020,350,0,0,11476
S,3198,12792020,349,0,0,15668
S,3199,12796020,347,0,0,19859
S,3200,12800020,345,0,0,23822
S,3201,12804020,343,0,0,21153
S,3202,12808020,341,0,0,25152
S,3203,12812020,342,0,0,29666
S,3204,12816020,340,0,0,33671
S,3205,12820020,338,0,0,37664
S,3206,12824020,336,0,0,41153
S,3207,12828020,334,0,0,45182
S,3208,12832020,334,0,0,49169
S,3209,12836020,333,0,0,53683
S,3210,12840020,331,0,0,57686
S,3211,12844020,329,0,0,63221
S,3212,12848020,330,0,0,1686
S,3213,12852020,330,0,0,5687
S,3214,12856020,326,0,0,10200
S,3215,12860020,322,0,0,14205
S,3216,12864020,318,0,0,18302
S,3217,12868020,317,0,0,21724
S,3218,12872020,318,0,0,25660
S,3219,12876020,318,0,0,30109
S,3220,12880024,315,0,0,34291
S,3221,12884024,313,0,0,38224
S,3222,12888024,312,0,0,43698
S,3223,12892020,313,0,0,47646
S,3224,12896024,313,0,0,51837
S,3225,12900020,310,0,0,56287
S,3226,12904024,307,0,0,60213
S,3227,12908020,306,0,0,63641
S,3228,12912020,306,0,0,2303
S,3229,12916020,306,0,0,6238
S,3230,12920020,307,0,0,10684
S,3231,12924024,305,0,0,14611
S,3232,12928020,306,0,0,18755
S,3233,12932020,309,0,0,24293
S,3234,12936020,312,0,0,28171
S,3235,12940020,313,0,0,32683
S,3236,12944020,316,0,0,36809
S,3237,12948020,317,0,0,40809
S,3238,12952020,314,0,0,44173
S,3239,12956020,311,0,0,48161
S,3240,12960020,310,0,0,52303
S,3241,12964020,311,0,0,56815
S,3242,12968024,316,0,0,60683
S,3243,12972024,314,0,0,58028
S,3244,12976024,306,0,0,62147
S,3245,12980020,298,0,0,629
S,3246,12984024,296,0,0,5016
S,3247,12988020,297,0,0,9012
S,3248,12992020,296,0,0,13130
S,3249,12996020,292,0,0,16615
S,3250,13000020,286,0,0,20542
S,3251,13004020,282,0,0,24987
S,3252,13008020,279,0,0,29169
S,3253,13012020,276,0,0,33107
S,3254,13016024,276,0,0,38588
S,3255,13020020,273,0,0,42516
S,3256,13024024,269,0,0,46699
S,3257,13028020,266,0,0,51137
S,3258,13032024,266,0,0,55086
S,3259,13036020,267,0,0,58498
S,3260,13040024,266,0,0,62696
S,3261,13044024,264,0,0,1098
S,3262,13048020,266,0,0,5543
S,3263,13052020,268,0,0,9472
S,3264,13056020,266,0,0,13593
S,3265,13060020,261,0,0,19127
S,3266,13064020,267,0,0,23130
S,3267,13068020,296,0,0,27608
S,3268,13072020,342,0,0,31681
S,3269,13076020,393,0,0,35775
S,3270,13080020,451,0,0,38934
S,3271,13084020,514,0,0,43894
S,3272,13088020,586,0,0,47953
S,3273,13092020,654,0,0,51764
S,3274,13096020,680,0,0,56049
S,3275,13100020,646,0,0,60798
S,3276,13104020,558,0,0,64945
S,3277,13108020,453,0,0,3828
S,3278,13112020,371,0,0,8097
S,3279,13116020,319,0,0,12108
S,3280,13120020,285,0,0,16145
S,3281,13124024,260,0,0,19621
S,3282,13128020,244,0,0,23994
S,3283,13132020,234,0,0,27653
S,3284,13136020,227,0,0,31851
S,3285,13140020,219,0,0,36082
S,3286,13144020,213,0,0,33567
S,3287,13148020,211,0,0,37816
S,3288,13152020,211,0,0,41943
S,3289,13156020,211,0,0,45686
S,3290,13160020,209,0,0,49815
S,3291,13164020,208,0,0,53559
S,3292,13168020,209,0,0,57681
S,3293,13172020,210,0,0,61939
S,3294,13176020,210,0,0,17
S,3295,13180024,210,0,0,4284
S,3296,13184020,210,0,0,8431
S,3297,13188020,210,0,0,14158
S,3298,13192020,212,0,0,18347
S,3299,13196020,213,0,0,22027
S,3300,13200020,213,0,0,26220
S,3301,13204020,212,0,0,30412
S,3302,13208020,212,0,0,34095
S,3303,13212020,216,0,0,38274
S,3304,13216020,219,0,0,42478
S,3305,13220020,219,0,0,46159
S,3306,13224020,218,0,0,50349
S,3307,13228020,218,0,0,56076
S,3308,13232020,220,0,0,60269
S,3309,13236020,220,0,0,64460
S,3310,13240020,220,0,0,2604
S,3311,13244020,221,0,0,6796
S,3312,13248020,222,0,0,10992
S,3313,13252020,225,0,0,14702
S,3314,13256020,227,0,0,18831
S,3315,13260020,226,0,0,22575
S,3316,13264020,226,0,0,26696
S,3317,13268020,227,0,0,30952
S,3318,13272024,230,0,0,36610
S,3319,13276020,234,0,0,40867
S,3320,13280024,235,0,0,44993
S,3321,13284020,236,0,0,48747
S,3322,13288020,239,0,0,52875
S,3323,13292020,243,0,0,56630
S,3324,13296020,245,0,0,60759
S,3325,13300024,244,0,0,65019
S,3326,13304020,243,0,0,3090
S,3327,13308020,243,0,0,7347
S,3328,13312024,246,0,0,11557
S,3329,13316020,247,0,0,8841
S,3330,13320020,244,0,0,12905
S,3331,13324020,241,0,0,17357
S,3332,13328020,240,0,0,21419
S,3333,13332020,242,0,0,25352
S,3334,13336020,242,0,0,28907
S,3335,13340020,240,0,0,32840
S,3336,13344020,236,0,0,36923
S,3337,13348020,235,0,0,41373
S,3338,13352024,234,0,0,45427
S,3339,13356020,231,0,0,50899
S,3340,13360024,229,0,0,54970
S,3341,13364020,226,0,0,58896
S,3342,13368020,224,0,0,63473
S,3343,13372020,222,0,0,1897
S,3344,13376020,219,0,0,5907
S,3345,13380020,216,0,0,9393
S,3346,13384020,216,0,0,13394
S,3347,13388020,217,0,0,17906
S,3348,13392024,218,0,0,21914
S,3349,13396020,217,0,0,25908
S,3350,13400020,215,0,0,31449
S,3351,13404024,215,0,0,35444
S,3352,13408024,217,0,0,39445
S,3353,13412020,221,0,0,43964
S,3354,13416024,221,0,0,47955
S,3355,13420024,219,0,0,51444
S,3356,13424020,217,0,0,55453
S,3357,13428020,219,0,0,59454
S,3358,13432020,223,0,0,63961
S,3359,13436020,225,0,0,2375
S,3360,13440020,225,0,0,6424
S,3361,13444020,225,0,0,11961
S,3362,13448020,227,0,0,15960
S,3363,13452020,228,0,0,20478
S,3364,13456020,225,0,0,24476
S,3365,13460020,224,0,0,28476
S,3366,13464020,226,0,0,31965
S,3367,13468020,228,0,0,35962
S,3368,13472020,229,0,0,39956
S,3369,13476020,231,0,0,44471
S,3370,13480024,229,0,0,48474
S,3371,13484020,230,0,0,45812
S,3372,13488020,231,0,0,49810
S,3373,13492020,233,0,0,53821
S,3374,13496020,235,0,0,58332
S,3375,13500024,235,0,0,62321
S,3376,13504020,232,0,0,770
S,3377,13508024,234,0,0,4269
S,3378,13512020,237,0,0,8261
S,3379,13516020,238,0,0,12775
S,3380,13520020,237,0,0,16771
S,3381,13524020,236,0,0,20771
S,3382,13528020,237,0,0,26305
S,3383,13532020,239,0,0,30306
S,3384,13536020,238,0,0,34316
S,3385,13540020,237,0,0,38830
S,3386,13544020,236,0,0,42828
S,3387,13548020,236,0,0,46317
S,3388,13552020,239,0,0,50313
S,3389,13556020,242,0,0,54325
S,3390,13560024,244,0,0,58844
S,3391,13564020,244,0,0,62833
S,3392,13568020,244,0,0,1391
S,3393,13572020,245,0,0,6863
S,3394,13576020,246,0,0,10799
S,3395,13580020,245,0,0,15245
S,3396,13584020,246,0,0,19433
S,3397,13588020,248,0,0,23366
S,3398,13592020,251,0,0,26790
S,3399,13596020,253,0,0,30721
S,3400,13600024,251,0,0,34916
S,3401,13604020,249,0,0,39371
S,3402,13608020,253,0,0,43308
S,3403,13612020,258,0,0,49010
S,3404,13616020,257,0,0,53014
S,3405,13620020,254,0,0,56904
S,3406,13624020,252,0,0,61353
S,3407,13628024,254,0,0,65286
S,3408,13632020,258,0,0,3734
S,3409,13636020,260,0,0,7473
S,3410,13640020,260,0,0,11730
S,3411,13644020,258,0,0,15477
S,3412,13648020,260,0,0,19476
S,3413,13652020,261,0,0,23732
S,3414,13656020,265,0,0,21339
S,3415,13660020,266,0,0,25593
S,3416,13664020,265,0,0,29589
S,3417,13668020,266,0,0,33335
S,3418,13672020,269,0,0,37587
S,3419,13676024,272,0,0,41315
S,3420,13680020,271,0,0,45335
S,3421,13684024,271,0,0,49594
S,3422,13688024,275,0,0,53317
S,3423,13692020,281,0,0,57570
S,3424,13696020,287,0,0,61627
S,3425,13700020,287,0,0,1819
S,3426,13704020,288,0,0,6087
S,3427,13708020,294,0,0,9824
S,3428,13712020,298,0,0,13835
S,3429,13716020,298,0,0,18090
S,3430,13720020,296,0,0,21835
S,3431,13724024,299,0,0,26085
S,3432,13728020,308,0,0,30105
S,3433,13732020,313,0,0,33845
S,3434,13736020,310,0,0,38105
S,3435,13740020,304,0,0,43902
S,3436,13744020,303,0,0,47878
S,3437,13748020,305,0,0,52153
S,3438,13752024,307,0,0,55892
S,3439,13756020,308,0,0,60158
S,3440,13760020,306,0,0,64135
S,3441,13764020,303,0,0,2360
S,3442,13768020,301,0,0,6617
S,3443,13772020,301,0,0,10360
S,3444,13776020,302,0,0,14364
S,3445,13780024,300,0,0,18611
S,3446,13784020,299,0,0,24411
S,3447,13788020,300,0,0,28669
S,3448,13792020,301,0,0,32659
S,3449,13796020,301,0,0,36402
S,3450,13800020,300,0,0,40656
S,3451,13804020,304,0,0,44397
S,3452,13808020,308,0,0,48398
S,3453,13812020,312,0,0,52643
S,3454,13816024,312,0,0,56396
S,3455,13820020,308,0,0,60653
S,3456,13824020,307,0,0,64629
S,3457,13828020,324,0,0,62371
S,3458,13832020,361,0,0,876
S,3459,13836020,410,0,0,4670
S,3460,13840020,468,0,0,8727
S,3461,13844020,534,0,0,12660
S,3462,13848020,606,0,0,17119
S,3463,13852020,688,0,0,21136
S,3464,13856020,715,0,0,25220
S,3465,13860020,713,0,0,29479
S,3466,13864020,677,0,0,33704
S,3467,13868020,581,0,0,38121
S,3468,13872020,480,0,0,42795
S,3469,13876020,406,0,0,47100
S,3470,13880020,367,0,0,50918
S,3471,13884020,345,0,0,54897
S,3472,13888020,331,0,0,58908
S,3473,13892020,323,0,0,62901
S,3474,13896024,316,0,0,1314
S,3475,13900020,310,0,0,5253
S,3476,13904020,306,0,0,9446
S,3477,13908024,305,0,0,13384
S,3478,13912024,306,0,0,19368
S,3479,13916024,307,0,0,23304
S,3480,13920020,307,0,0,27499
S,3481,13924024,306,0,0,31431
S,3482,13928020,307,0,0,35369
S,3483,13932020,309,0,0,39310
S,3484,13936024,311,0,0,43495
S,3485,13940024,311,0,0,47430
S,3486,13944024,311,0,0,51365
S,3487,13948020,315,0,0,55300
S,3488,13952020,321,0,0,59425
S,3489,13956020,323,0,0,65410
S,3490,13960020,323,0,0,3936
S,3491,13964020,322,0,0,7872
S,3492,13968020,325,0,0,11936
S,3493,13972020,329,0,0,15885
S,3494,13976020,331,0,0,19948
S,3495,13980024,330,0,0,23872
S,3496,13984020,331,0,0,27938
S,3497,13988020,334,0,0,31878
S,3498,13992020,336,0,0,35963
S,3499,13996024,334,0,0,33736
S,3500,14000024,334,0,0,37807
S,3501,14004024,337,0,0,41745
S,3502,14008020,341,0,0,45818
S,3503,14012020,342,0,0,49752
S,3504,14016020,343,0,0,53798
S,3505,14020020,343,0,0,57735
S,3506,14024024,344,0,0,61799
S,3507,14028024,349,0,0,192
S,3508,14032020,353,0,0,4247
S,3509,14036020,356,0,0,8243
S,3510,14040020,359,0,0,14291
S,3511,14044024,358,0,0,18303
S,3512,14048020,362,0,0,22288
S,3513,14052024,366,0,0,26297
S,3514,14056024,367,0,0,30299
S,3515,14060020,365,0,0,34292
S,3516,14064020,363,0,0,38293
S,3517,14068020,364,0,0,42291
S,3518,14072020,367,0,0,46291
S,3519,14076020,367,0,0,50290
S,3520,14080024,364,0,0,54370
S,3521,14084020,363,0,0,60360
S,3522,14088020,364,0,0,64300
S,3523,14092020,362,0,0,2698
S,3524,14096020,361,0,0,6894
S,3525,14100020,359,0,0,10817
S,3526,14104020,356,0,0,14753
S,3527,14108020,354,0,0,18694
S,3528,14112020,354,0,0,22889
S,3529,14116020,353,0,0,26827
S,3530,14120024,349,0,0,30744
S,3531,14124020,346,0,0,36786
S,3532,14128020,346,0,0,40917
S,3533,14132024,345,0,0,44923
S,3534,14136020,343,0,0,48794
S,3535,14140024,340,0,0,52788
S,3536,14144024,336,0,0,56911
S,3537,14148020,337,0,0,60899
S,3538,14152024,339,0,0,64782
S,3539,14156020,338,0,0,3245
S,3540,14160020,336,0,0,7368
S,3541,14164020,334,0,0,11383
S,3542,14168020,334,0,0,9108
S,3543,14172020,335,0,0,13108
S,3544,14176024,336,0,0,17224
S,3545,14180020,335,0,0,21242
S,3546,14184020,334,0,0,25112
S,3547,14188020,336,0,0,29095
S,3548,14192020,337,0,0,33217
S,3549,14196024,338,0,0,37231
S,3550,14200024,337,0,0,41103
S,3551,14204020,335,0,0,45116
S,3552,14208020,334,0,0,49250
S,3553,14212020,333,0,0,55232
S,3554,14216020,332,0,0,59170
S,3555,14220020,331,0,0,63108
S,3556,14224020,330,0,0,1763
S,3557,14228020,329,0,0,5697
S,3558,14232020,328,0,0,9635
S,3559,14236020,326,0,0,13580
S,3560,14240024,322,0,0,17771
S,3561,14244020,320,0,0,21700
S,3562,14248024,320,0,0,25643
S,3563,14252020,321,0,0,31623
S,3564,14256020,319,0,0,35742
S,3565,14260020,314,0,0,39738
S,3566,14264020,312,0,0,43739
S,3567,14268020,313,0,0,47739
S,3568,14272020,316,0,0,51713
S,3569,14276020,316,0,0,55712
S,3570,14280020,312,0,0,59719
S,3571,14284020,310,0,0,63720
S,3572,14288020,311,0,0,2189
S,3573,14292020,313,0,0,6178
S,3574,14296024,313,0,0,12237
S,3575,14300020,312,0,0,16225
S,3576,14304020,309,0,0,20227
S,3577,14308024,308,0,0,24239
S,3578,14312020,310,0,0,28226
S,3579,14316020,309,0,0,32224
S,3580,14320020,306,0,0,36224
S,3581,14324020,304,0,0,40227
S,3582,14328020,304,0,0,44224
S,3583,14332020,305,0,0,48224
S,3584,14336020,306,0,0,53244
S,3585,14340020,302,0,0,49217
S,3586,14344020,300,0,0,53408
S,3587,14348020,302,0,0,57603
S,3588,14352020,302,0,0,61796
S,3589,14356024,302,0,0,456
S,3590,14360020,300,0,0,4645
S,3591,14364020,298,0,0,8834
S,3592,14368020,296,0,0,13039
S,3593,14372020,296,0,0,17230
S,3594,14376020,296,0,0,21421
S,3595,14380024,294,0,0,25614
S,3596,14384020,293,0,0,29798
S,3597,14388020,292,0,0,33990
S,3598,14392024,296,0,0,38181
S,3599,14396020,294,0,0,42374
S,3600,14400020,291,0,0,46588
S,3601,14404020,288,0,0,50782
S,3602,14408020,288,0,0,54973
S,3603,14412020,288,0,0,59164
S,3604,14416024,287,0,0,63304
S,3605,14420020,284,0,0,2017
S,3606,14424020,282,0,0,6148
S,3607,14428020,284,0,0,10403
S,3608,14432020,285,0,0,14541
S,3609,14436020,283,0,0,18794
S,3610,14440020,280,0,0,22922
S,3611,14444020,280,0,0,27179
S,3612,14448020,282,0,0,31310
S,3613,14452020,287,0,0,35562
S,3614,14456020,291,0,0,39733
S,3615,14460020,291,0,0,43924
S,3616,14464020,291,0,0,48075
S,3617,14468020,292,0,0,52333
S,3618,14472020,293,0,0,56463
S,3619,14476020,290,0,0,60713
S,3620,14480020,286,0,0,64882
S,3621,14484020,289,0,0,3565
S,3622,14488020,293,0,0,7690
S,3623,14492020,297,0,0,11943
S,3624,14496020,291,0,0,16066
S,3625,14500020,283,0,0,20315
S,3626,14504020,277,0,0,24502
S,3627,14508020,279,0,0,20501
S,3628,14512020,281,0,0,24700
S,3629,14516020,276,0,0,28880
S,3630,14520020,269,0,0,33066
S,3631,14524024,264,0,0,37250
S,3632,14528020,261,0,0,41468
S,3633,14532020,258,0,0,45658
S,3634,14536024,254,0,0,49993
S,3635,14540020,253,0,0,53991
S,3636,14544020,251,0,0,57990
S,3637,14548020,251,0,0,61991
S,3638,14552020,252,0,0,1472
S,3639,14556020,252,0,0,5473
S,3640,14560020,252,0,0,9486
S,3641,14564020,250,0,0,13481
S,3642,14568020,252,0,0,17484
S,3643,14572020,256,0,0,22033
S,3644,14576020,257,0,0,26231
S,3645,14580020,251,0,0,30508
S,3646,14584020,249,0,0,34509
S,3647,14588020,266,0,0,38815
S,3648,14592020,304,0,0,42938
S,3649,14596020,352,0,0,47179
S,3650,14600020,405,0,0,51293
S,3651,14604020,467,0,0,55738
S,3652,14608020,535,0,0,59929
S,3653,14612024,602,0,0,64249
S,3654,14616020,631,0,0,2362
S,3655,14620024,610,0,0,6530
S,3656,14624020,542,0,0,10653
S,3657,14628020,444,0,0,15262
S,3658,14632020,350,0,0,19359
S,3659,14636020,280,0,0,23672
S,3660,14640020,235,0,0,28140
S,3661,14644020,204,0,0,32106
S,3662,14648020,183,0,0,36082
S,3663,14652020,170,0,0,40014
S,3664,14656024,161,0,0,44086
S,3665,14660020,153,0,0,49059
S,3666,14664024,140,0,0,53081
S,3667,14668020,131,0,0,57083
S,3668,14672020,126,0,0,61025
S,3669,14676020,125,0,0,65219
S,3670,14680020,127,0,0,61730
S,3671,14684020,126,0,0,445
S,3672,14688020,128,0,0,4396
S,3673,14692020,132,0,0,8329
S,3674,14696020,135,0,0,12393
S,3675,14700024,137,0,0,17354
S,3676,14704020,138,0,0,21410
S,3677,14708024,142,0,0,25355
S,3678,14712020,145,0,0,29435
S,3679,14716020,148,0,0,33375
S,3680,14720020,150,0,0,37378
S,3681,14724020,154,0,0,42415
S,3682,14728020,157,0,0,46411
S,3683,14732020,159,0,0,50408
S,3684,14736020,162,0,0,54450
S,3685,14740020,165,0,0,58388
S,3686,14744020,168,0,0,63482
S,3687,14748020,171,0,0,1881
S,3688,14752020,176,0,0,5933
S,3689,14756020,180,0,0,9864
S,3690,14760020,179,0,0,13932
S,3691,14764020,180,0,0,18890
S,3692,14768020,185,0,0,22944
S,3693,14772020,191,0,0,26887
S,3694,14776020,193,0,0,30874
S,3695,14780020,192,0,0,34874
S,3696,14784024,194,0,0,38987
S,3697,14788020,199,0,0,44003
S,3698,14792020,204,0,0,47883
S,3699,14796020,207,0,0,51881
S,3700,14800024,208,0,0,56029
S,3701,14804020,211,0,0,60019
S,3702,14808024,216,0,0,64919
S,3703,14812020,222,0,0,3391
S,3704,14816020,225,0,0,7535
S,3705,14820020,227,0,0,11468
S,3706,14824020,229,0,0,15401
S,3707,14828020,231,0,0,20362
S,3708,14832024,232,0,0,24558
S,3709,14836020,234,0,0,28481
S,3710,14840024,234,0,0,32430
S,3711,14844020,234,0,0,36355
S,3712,14848020,236,0,0,40602
S,3713,14852020,238,0,0,37177
S,3714,14856024,237,0,0,41429
S,3715,14860020,236,0,0,45177
S,3716,14864024,235,0,0,49173
S,3717,14868024,237,0,0,53426
S,3718,14872020,238,0,0,58206
S,3719,14876020,237,0,0,62460
S,3720,14880020,233,0,0,918
S,3721,14884024,233,0,0,4667
S,3722,14888020,234,0,0,8919
S,3723,14892020,236,0,0,13680
S,3724,14896020,235,0,0,17680
S,3725,14900020,234,0,0,21936
S,3726,14904020,233,0,0,25680
S,3727,14908020,234,0,0,29938
S,3728,14912020,236,0,0,33931
S,3729,14916020,238,0,0,38696
S,3730,14920024,239,0,0,42950
S,3731,14924024,241,0,0,46713
S,3732,14928020,243,0,0,50704
S,3733,14932020,248,0,0,54970
S,3734,14936020,251,0,0,59738
S,3735,14940020,252,0,0,63996
S,3736,14944020,255,0,0,2455
S,3737,14948020,257,0,0,6600
S,3738,14952020,259,0,0,10537
S,3739,14956020,259,0,0,14984
S,3740,14960024,258,0,0,19170
S,3741,14964024,260,0,0,23109
S,3742,14968020,263,0,0,27561
S,3743,14972020,266,0,0,31493
S,3744,14976020,266,0,0,35674
S,3745,14980020,266,0,0,40187
S,3746,14984020,268,0,0,44062
S,3747,14988020,271,0,0,48572
S,3748,14992020,273,0,0,52677
S,3749,14996020,275,0,0,56678
S,3750,15000020,275,0,0,61061
S,3751,15004020,276,0,0,65059
S,3752,15008020,278,0,0,3663
S,3753,15012020,281,0,0,8161
S,3754,15016020,281,0,0,12034
S,3755,15020024,281,0,0,8367
S,3756,15024020,281,0,0,12484
S,3757,15028024,282,0,0,16490
S,3758,15032024,285,0,0,20878
S,3759,15036020,285,0,0,24867
S,3760,15040020,285,0,0,29020
S,3761,15044020,285,0,0,33533
S,3762,15048024,287,0,0,37392
S,3763,15052020,289,0,0,41859
S,3764,15056020,289,0,0,46052
S,3765,15060020,290,0,0,49990
S,3766,15064020,291,0,0,54436
S,3767,15068024,296,0,0,58370
S,3768,15072020,299,0,0,62562
S,3769,15076020,294,0,0,1485
S,3770,15080020,293,0,0,5421
S,3771,15084020,293,0,0,9868
S,3772,15088020,295,0,0,14057
S,3773,15092024,298,0,0,17993
S,3774,15096020,298,0,0,22438
S,3775,15100020,300,0,0,26369
S,3776,15104020,303,0,0,30493
S,3777,15108020,307,0,0,34976
S,3778,15112020,308,0,0,38980
S,3779,15116020,308,0,0,43493
S,3780,15120020,307,0,0,47493
S,3781,15124020,306,0,0,51493
S,3782,15128020,308,0,0,56000
S,3783,15132020,310,0,0,60003
S,3784,15136020,311,0,0,64013
S,3785,15140020,311,0,0,2989
S,3786,15144020,313,0,0,6976
S,3787,15148024,316,0,0,11496
S,3788,15152020,318,0,0,15489
S,3789,15156020,318,0,0,19488
S,3790,15160020,317,0,0,24000
S,3791,15164024,318,0,0,28014
S,3792,15168020,321,0,0,32098
S,3793,15172020,324,0,0,36550
S,3794,15176020,323,0,0,40482
S,3795,15180024,321,0,0,44941
S,3796,15184020,321,0,0,49126
S,3797,15188020,323,0,0,53061
S,3798,15192020,326,0,0,49315
S,3799,15196020,329,0,0,53261
S,3800,15200020,330,0,0,57441
S,3801,15204020,332,0,0,61894
S,3802,15208020,335,0,0,297
S,3803,15212020,340,0,0,4755
S,3804,15216020,343,0,0,8951
S,3805,15220024,344,0,0,12885
S,3806,15224020,347,0,0,17337
S,3807,15228020,351,0,0,21276
S,3808,15232020,352,0,0,25468
S,3809,15236020,351,0,0,29922
S,3810,15240020,353,0,0,33855
S,3811,15244024,360,0,0,38299
S,3812,15248020,365,0,0,42485
S,3813,15252020,362,0,0,46419
S,3814,15256020,356,0,0,50878
S,3815,15260020,352,0,0,54811
S,3816,15264020,354,0,0,58998
S,3817,15268020,356,0,0,63441
S,3818,15272020,354,0,0,1845
S,3819,15276020,352,0,0,6294
S,3820,15280024,350,0,0,10435
S,3821,15284024,349,0,0,14433
S,3822,15288024,348,0,0,18819
S,3823,15292020,346,0,0,22824
S,3824,15296020,345,0,0,26964
S,3825,15300024,344,0,0,31480
S,3826,15304020,342,0,0,35353
S,3827,15308020,343,0,0,39865
S,3828,15312020,344,0,0,43985
S,3829,15316020,344,0,0,47984
S,3830,15320020,342,0,0,52381
S,3831,15324020,343,0,0,56381
S,3832,15328020,350,0,0,60507
S,3833,15332020,356,0,0,64960
S,3834,15336020,353,0,0,3365
S,3835,15340020,347,0,0,7870
S,3836,15344020,356,0,0,12006
S,3837,15348020,388,0,0,16039
S,3838,15352020,436,0,0,20340
S,3839,15356024,492,0,0,24449
S,3840,15360024,556,0,0,28126
S,3841,15364020,626,0,0,25133
S,3842,15368020,704,0,0,29308
S,3843,15372020,717,0,0,33744
S,3844,15376024,717,0,0,37819
S,3845,15380020,715,0,0,41744
S,3846,15384020,669,0,0,45221
S,3847,15388020,562,0,0,49323
S,3848,15392024,466,0,0,54056
S,3849,15396020,408,0,0,58063
S,3850,15400020,383,0,0,62155
S,3851,15404020,371,0,0,1383
S,3852,15408020,362,0,0,5401
S,3853,15412020,357,0,0,9655
S,3854,15416020,351,0,0,13422
S,3855,15420020,343,0,0,17607
S,3856,15424020,341,0,0,21690
S,3857,15428020,343,0,0,26393
S,3858,15432024,344,0,0,30713
S,3859,15436024,344,0,0,34392
S,3860,15440020,345,0,0,38450
S,3861,15444024,346,0,0,42652
S,3862,15448020,348,0,0,47477
S,3863,15452024,349,0,0,51673
S,3864,15456020,350,0,0,55737
S,3865,15460024,350,0,0,59412
S,3866,15464020,352,0,0,63685
S,3867,15468020,353,0,0,2914
S,3868,15472020,356,0,0,6912
S,3869,15476020,358,0,0,11171
S,3870,15480024,358,0,0,14924
S,3871,15484020,357,0,0,19170
S,3872,15488020,359,0,0,23231
S,3873,15492020,361,0,0,27920
S,3874,15496024,362,0,0,32252
S,3875,15500020,363,0,0,35920
S,3876,15504020,365,0,0,39985
S,3877,15508020,368,0,0,44173
S,3878,15512024,372,0,0,48998
S,3879,15516020,371,0,0,53196
S,3880,15520020,370,0,0,57250
S,3881,15524024,372,0,0,60937
S,3882,15528020,376,0,0,65258
S,3883,15532024,379,0,0,61764
S,3884,15536020,381,0,0,296
S,3885,15540020,383,0,0,4491
S,3886,15544020,384,0,0,8343
S,3887,15548020,388,0,0,12338
S,3888,15552024,392,0,0,16461
S,3889,15556020,395,0,0,21475
S,3890,15560020,395,0,0,25344
S,3891,15564020,397,0,0,29351
S,3892,15568020,398,0,0,33475
S,3893,15572020,404,0,0,37496
S,3894,15576024,407,0,0,42388
S,3895,15580024,407,0,0,46389
S,3896,15584020,407,0,0,50518
S,3897,15588020,408,0,0,54520
S,3898,15592020,408,0,0,58395
S,3899,15596020,407,0,0,63413
S,3900,15600020,406,0,0,2000
S,3901,15604020,406,0,0,6001
S,3902,15608020,408,0,0,9884
S,3903,15612024,409,0,0,13872
S,3904,15616020,407,0,0,17965
S,3905,15620020,405,0,0,22926
S,3906,15624020,406,0,0,26990
S,3907,15628020,407,0,0,30926
S,3908,15632024,408,0,0,34986
S,3909,15636020,404,0,0,38923
S,3910,15640020,400,0,0,44012
S,3911,15644024,397,0,0,47964
S,3912,15648020,396,0,0,52030
S,3913,15652020,396,0,0,55967
S,3914,15656020,395,0,0,60027
S,3915,15660020,392,0,0,64985
S,3916,15664020,391,0,0,3504
S,3917,15668020,394,0,0,7452
S,3918,15672020,399,0,0,11514
S,3919,15676020,400,0,0,15428
S,3920,15680024,399,0,0,19496
S,3921,15684020,398,0,0,24452
S,3922,15688024,398,0,0,28523
S,3923,15692020,398,0,0,32454
S,3924,15696020,400,0,0,36543
S,3925,15700020,401,0,0,40479
S,3926,15704020,403,0,0,37374
S,3927,15708020,406,0,0,41306
S,3928,15712020,406,0,0,45365
S,3929,15716024,404,0,0,49306
S,3930,15720020,404,0,0,53365
S,3931,15724024,405,0,0,58329
S,3932,15728020,407,0,0,62384
S,3933,15732020,408,0,0,769
S,3934,15736020,408,0,0,4834
S,3935,15740020,405,0,0,8782
S,3936,15744020,403,0,0,12823
S,3937,15748020,404,0,0,17841
S,3938,15752020,406,0,0,21840
S,3939,15756020,405,0,0,25842
S,3940,15760020,402,0,0,29842
S,3941,15764020,401,0,0,33840
S,3942,15768020,406,0,0,38868
S,3943,15772020,409,0,0,42874
S,3944,15776024,407,0,0,46871
S,3945,15780020,406,0,0,50875
S,3946,15784020,406,0,0,54872
S,3947,15788020,406,0,0,59897
S,3948,15792020,405,0,0,63901
S,3949,15796020,403,0,0,2363
S,3950,15800020,400,0,0,6363
S,3951,15804020,400,0,0,10362
S,3952,15808020,400,0,0,14341
S,3953,15812020,398,0,0,19386
S,3954,15816024,399,0,0,23380
S,3955,15820024,397,0,0,27383
S,3956,15824020,395,0,0,31386
S,3957,15828020,395,0,0,35387
S,3958,15832020,395,0,0,40408
S,3959,15836020,394,0,0,44408
S,3960,15840020,394,0,0,48407
S,3961,15844020,395,0,0,52407
S,3962,15848024,395,0,0,56408
S,3963,15852020,394,0,0,61428
S,3964,15856020,393,0,0,65424
S,3965,15860020,391,0,0,3900
S,3966,15864020,390,0,0,7902
S,3967,15868020,393,0,0,11888
S,3968,15872020,394,0,0,16108
S,3969,15876020,393,0,0,12622
S,3970,15880024,392,0,0,16800
S,3971,15884020,393,0,0,20492
S,3972,15888020,393,0,0,24683
S,3973,15892024,395,0,0,28868
S,3974,15896020,394,0,0,33578
S,3975,15900020,392,0,0,37769
S,3976,15904020,389,0,0,41963
S,3977,15908020,389,0,0,45642
S,3978,15912020,388,0,0,49832
S,3979,15916020,387,0,0,54542
S,3980,15920020,385,0,0,58731
S,3981,15924020,383,0,0,62772
S,3982,15928020,384,0,0,1065
S,3983,15932020,386,0,0,5258
S,3984,15936020,384,0,0,9463
S,3985,15940020,382,0,0,14248
S,3986,15944020,381,0,0,18248
S,3987,15948024,381,0,0,22245
S,3988,15952020,382,0,0,26253
S,3989,15956020,381,0,0,30255
S,3990,15960020,379,0,0,35274
S,3991,15964020,384,0,0,39312
S,3992,15968020,388,0,0,43515
S,3993,15972020,392,0,0,47190
S,3994,15976020,392,0,0,51381
S,3995,15980020,388,0,0,56088
S,3996,15984020,384,0,0,60283
S,3997,15988020,387,0,0,64473
S,3998,15992020,394,0,0,2612
S,3999,15996020,398,0,0,6801
S,4000,16000020,393,0,0,10953
S,4001,16004020,386,0,0,15715
S,4002,16008020,382,0,0,19836
S,4003,16012020,383,0,0,23772
S,4004,16016020,383,0,0,27835
S,4005,16020020,378,0,0,31775
S,4006,16024020,374,0,0,36848
S,4007,16028020,373,0,0,40786
S,4008,16032020,371,0,0,44859
S,4009,16036020,365,0,0,48772
S,4010,16040024,360,0,0,52846
S,4011,16044020,359,0,0,49612
S,4012,16048020,359,0,0,53675
S,4013,16052020,357,0,0,57608
S,4014,16056020,354,0,0,61676
S,4015,16060024,351,0,0,125
S,4016,16064024,352,0,0,4157
S,4017,16068020,353,0,0,9105
S,4018,16072020,353,0,0,13170
S,4019,16076020,353,0,0,17107
S,4020,16080020,353,0,0,21172
S,4021,16084020,352,0,0,25108
S,4022,16088020,350,0,0,30153
S,4023,16092020,352,0,0,34134
S,4024,16096020,369,0,0,38184
S,4025,16100020,405,0,0,42093
S,4026,16104020,459,0,0,46288
S,4027,16108020,524,0,0,50358
S,4028,16112024,598,0,0,54407
S,4029,16116020,675,0,0,58591
S,4030,16120024,717,0,0,62814
S,4031,16124020,717,0,0,1520
S,4032,16128020,713,0,0,5611
S,4033,16132020,651,0,0,10760
S,4034,16136020,534,0,0,14966
S,4035,16140020,434,0,0,18547
S,4036,16144020,385,0,0,22567
S,4037,16148020,369,0,0,26742
S,4038,16152020,357,0,0,31617
S,4039,16156020,337,0,0,35604
S,4040,16160024,324,0,0,39778
S,4041,16164020,316,0,0,43703
S,4042,16168020,313,0,0,47697
S,4043,16172024,311,0,0,52722
S,4044,16176024,307,0,0,56721
S,4045,16180024,305,0,0,60722
S,4046,16184020,304,0,0,64732
S,4047,16188020,304,0,0,3196
S,4048,16192020,303,0,0,7196
S,4049,16196020,301,0,0,12223
S,4050,16200020,300,0,0,16221
S,4051,16204020,298,0,0,20218
S,4052,16208024,298,0,0,24209
S,4053,16212024,299,0,0,28209
S,4054,16216020,298,0,0,25055
S,4055,16220024,296,0,0,29040
S,4056,16224024,295,0,0,33040
S,4057,16228020,296,0,0,37042
S,4058,16232020,296,0,0,41041
S,4059,16236020,295,0,0,46079
S,4060,16240020,296,0,0,50071
S,4061,16244024,298,0,0,54072
S,4062,16248024,298,0,0,58075
S,4063,16252020,298,0,0,62070
S,4064,16256020,295,0,0,555
S,4065,16260024,295,0,0,5510
S,4066,16264020,296,0,0,9574
S,4067,16268020,297,0,0,13510
S,4068,16272020,298,0,0,17570
S,4069,16276020,298,0,0,21507
S,4070,16280024,296,0,0,26606
S,4071,16284020,296,0,0,30531
S,4072,16288020,297,0,0,34605
S,4073,16292020,297,0,0,38540
S,4074,16296020,295,0,0,42593
S,4075,16300024,295,0,0,47564
S,4076,16304020,295,0,0,51623
S,4077,16308020,301,0,0,55564
S,4078,16312020,305,0,0,59635
S,4079,16316020,305,0,0,63570
S,4080,16320020,302,0,0,2099
S,4081,16324020,300,0,0,7056
S,4082,16328020,300,0,0,11123
S,4083,16332020,300,0,0,15058
S,4084,16336020,298,0,0,19123
S,4085,16340020,294,0,0,23070
S,4086,16344024,294,0,0,28145
S,4087,16348024,294,0,0,32080
S,4088,16352020,293,0,0,36144
S,4089,16356020,292,0,0,40080
S,4090,16360020,289,0,0,44150
S,4091,16364024,287,0,0,49125
S,4092,16368020,287,0,0,53134
S,4093,16372024,287,0,0,57123
S,4094,16376020,283,0,0,61128
S,4095,16380020,280,0,0,65130
S,4096,16384020,279,0,0,4601
S,4097,16388020,278,0,0,7769
S,4098,16392024,277,0,0,3765
S,4099,16396024,274,0,0,16147
S,4100,16400020,269,0,0,12135
S,4101,16404020,266,0,0,24513
S,4102,16408020,267,0,0,19491
S,4103,16412020,269,0,0,31876
S,4104,16416020,268,0,0,27882
S,4105,16420020,266,0,0,40269
S,4106,16424020,265,0,0,36269
S,4107,16428020,265,0,0,47628
S,4108,16432020,266,0,0,43624
S,4109,16436020,266,0,0,56009
S,4110,16440020,264,0,0,52008
S,4111,16444020,264,0,0,64393
S,4112,16448020,266,0,0,60404
S,4113,16452020,268,0,0,6226
S,4114,16456020,269,0,0,2224
S,4115,16460020,268,0,0,14608
S,4116,16464020,266,0,0,10609
S,4117,16468020,266,0,0,22992
S,4118,16472020,267,0,0,17970
S,4119,16476020,269,0,0,30357
S,4120,16480024,268,0,0,26359
S,4121,16484020,267,0,0,38749
S,4122,16488020,268,0,0,34745
S,4123,16492020,271,0,0,46107
S,4124,16496020,269,0,0,42110
S,4125,16500020,265,0,0,54491
S,4126,16504020,266,0,0,50491
S,4127,16508020,266,0,0,62874
S,4128,16512020,266,0,0,58821
S,4129,16516020,264,0,0,4705
S,4130,16520020,262,0,0,652
S,4131,16524020,260,0,0,13103
S,4132,16528020,260,0,0,9032
S,4133,16532020,260,0,0,21481
S,4134,16536020,259,0,0,16397
S,4135,16540020,257,0,0,28846
S,4136,16544020,258,0,0,24770
S,4137,16548020,259,0,0,37218
S,4138,16552020,260,0,0,33158
S,4139,16556020,259,0,0,36384
S,4140,16560020,256,0,0,48708
S,4141,16564020,256,0,0,44773
S,4142,16568020,258,0,0,57092
S,4143,16572020,258,0,0,53157
S,4144,16576020,258,0,0,65498
S,4145,16580020,256,0,0,60537
S,4146,16584024,255,0,0,7528
S,4147,16588020,257,0,0,3387
S,4148,16592020,258,0,0,15711
S,4149,16596020,256,0,0,11772
S,4150,16600020,253,0,0,23522
S,4151,16604020,254,0,0,19264
S,4152,16608020,255,0,0,31534
S,4153,16612020,256,0,0,27504
S,4154,16616020,256,0,0,39827
S,4155,16620020,254,0,0,35276
S,4156,16624024,254,0,0,47527
S,4157,16628024,257,0,0,43257
S,4158,16632020,258,0,0,55573
S,4159,16636020,257,0,0,51639
S,4160,16640020,256,0,0,63913
S,4161,16644020,257,0,0,58889
S,4162,16648020,257,0,0,5865
S,4163,16652024,259,0,0,1862
S,4164,16656024,259,0,0,14113
S,4165,16660020,257,0,0,10126
S,4166,16664020,258,0,0,21614
S,4167,16668020,261,0,0,17608
S,4168,16672020,262,0,0,29860
