b
9,2702570S,32394,129576008,517,0,0
9,2500,1,,
S,32396,129584008,517,0,0
S,32397,129588008,517,0,0
S,32398,129592008,517,0,0
S,32399,129596012,517,0,0
S,32400,129600008,518,0,0
S,32401,129604008,518,0,0
S,32402,129608008,518,0,0
S,32403,129612008,518,0,0
S,32404,129616008,518,0,0
S,32405,129620008,518,0,0
S,32406,129624008,518,0,0
S,32407,129628008,518,0,0
S,32408,129632008,518,0,0
S,32409,129636008,518,0,0
S,32410,129640008,518,0,0
S,32411,129644008,518,0,0
S,32412,129648008,518,0,0
S,32413,129652008,518,0,0
S,32414,129656008,518,0,0
S,32415,129660012,518,0,0
S,32416,129664008,521,0,0
S,32417,129668008,525,0,0
S,32418,129672012,529,0,0
S,32419,129676008,532,0,0
S,32420,129680008,536,0,0
S,32421,129684008,540,0,0
S,32422,129688008,544,0,0
S,32423,129692008,544,0,0
S,32424,129696008,540,0,0
S,32425,129700008,537,0,0
S,32426,129704008,533,0,0
S,32427,129708008,530,0,0
S,32428,129712012,526,0,0
S,32429,129716008,522,0,0
S,32430,129720008,519,0,0
S,32431,129724012,519,0,0
S,32432,129728008,519,0,0
S,32433,129732008,519,0,0
S,32434,129736008,519,0,0
S,32435,129740008,519,0,0
S,32436,129744008,519,0,0
S,32437,129748012,519,0,0
S,32438,129752008,519,0,0
S,32439,129756008,519,0,0
S,32440,129760008,512,0,0
S,32441,129764012,497,0,0
S,32442,129768008,482,0,0
S,32443,129772008,482,0,0
S,32444,129776008,497,0,0
S,32445,129780008,512,0,0
S,32446,129784008,519,0,0
S,32447,129788008,519,0,0
S,32448,129792008,604,0,0
S,32449,129796008,689,0,0
S,32450,129800008,775,0,0
S,32451,129804008,690,0,0
S,32452,129808008,605,0,0
S,32453,129812008,520,0,0
S,32454,129816008,520,0,0
S,32455,129820008,504,0,0
S,32456,129824008,488,0,0
S,32457,129828008,472,0,0
S,32458,129832008,455,0,0
S,32459,129836008,472,0,0
S,32460,129840008,488,0,0
S,32461,129844008,504,0,0
S,32462,129848008,520,0,0
S,32463,129852008,520,0,0
S,32464,129856008,520,0,0
S,32465,129860008,520,0,0
S,32466,129864008,520,0,0
S,32467,129868008,520,0,0
S,32468,129872008,520,0,0
S,32469,129876008,520,0,0
S,32470,129880008,520,0,0
S,32471,129884008,520,0,0
S,32472,129888008,523,0,0
S,32473,129892008,529,0,0
S,32474,129896008,534,0,0
S,32475,129900008,540,0,0
S,32476,129904008,545,0,0
S,32477,129908008,551,0,0
S,32478,129912008,556,0,0
S,32479,129916008,561,0,0
S,32480,129920008,566,0,0
S,32481,129924008,572,0,0
S,32482,129928008,577,0,0
S,32483,129932008,582,0,0
S,32484,129936008,587,0,0
S,32485,129940008,592,0,0
S,32486,129944008,598,0,0
S,32487,129948008,603,0,0
S,32488,129952008,603,0,0
S,32489,129956008,598,0,0
S,32490,129960008,592,0,0
S,32491,129964008,587,0,0
S,32492,129968008,582,0,0
S,32493,129972008,577,0,0
S,32494,129976008,572,0,0
S,32495,129980008,566,0,0
S,32496,129984008,561,0,0
S,32497,129988008,556,0,0
S,32498,129992012,551,0,0
S,32499,129996012,545,0,0
S,32500,130000008,541,0,0
S,32501,130004008,536,0,0
S,32502,130008008,531,0,0
S,32503,130012008,525,0,0
S,32504,130016008,522,0,0
S,32505,130020008,522,0,0
S,32506,130024008,522,0,0
S,32507,130028008,522,0,0
S,32508,130032008,522,0,0
S,32509,130036008,522,0,0
S,32510,130040012,522,0,0
S,32511,130044008,522,0,0
S,32512,130048008,522,0,0
S,32513,130052008,522,0,0
S,32514,130056008,522,0,0
S,32515,130060008,522,0,0
S,32516,130064008,522,0,0
S,32517,130068008,522,0,0
S,32518,130072008,522,0,0
S,32519,130076008,522,0,0
S,32520,130080008,522,0,0
S,32521,130084008,522,0,0
S,32522,130088008,522,0,0
S,32523,130092008,522,0,0
S,32524,130096008,522,0,0
S,32525,130100008,521,0,0
S,32526,130104008,521,0,0
S,32527,130108008,521,0,0
S,32528,130112008,521,0,0
S,32529,130116008,521,0,0
S,32530,130120008,521,0,0
S,32531,130124008,521,0,0
S,32532,130128008,521,0,0
S,32533,130132008,521,0,0
S,32534,130136008,521,0,0
S,32535,130140008,521,0,0
S,32536,130144008,524,0,0
S,32537,130148008,528,0,0
S,32538,130152008,532,0,0
S,32539,130156008,535,0,0
S,32540,130160008,539,0,0
S,32541,130164008,543,0,0
S,32542,130168008,547,0,0
S,32543,130172008,547,0,0
S,32544,130176012,543,0,0
S,32545,130180008,539,0,0
S,32546,130184008,535,0,0
S,32547,130188008,532,0,0
S,32548,130192008,528,0,0
S,32549,130196008,524,0,0
S,32550,130200008,520,0,0
S,32551,130204008,520,0,0
S,32552,130208012,520,0,0
S,32553,130212008,520,0,0
S,32554,130216008,520,0,0
S,32555,130220008,520,0,0
S,32556,130224008,520,0,0
S,32557,130228008,520,0,0
S,32558,130232008,520,0,0
S,32559,130236008,520,0,0
S,32560,130240012,513,0,0
S,32561,130244008,498,0,0
S,32562,130248012,483,0,0
S,32563,130252008,483,0,0
S,32564,130256008,498,0,0
S,32565,130260008,513,0,0
S,32566,130264008,520,0,0
S,32567,130268008,520,0,0
S,32568,130272008,605,0,0
S,32569,130276008,690,0,0
S,32570,130280008,775,0,0
S,32571,130284008,690,0,0
S,32572,130288008,605,0,0
S,32573,130292008,520,0,0
S,32574,130296008,520,0,0
S,32575,130300008,503,0,0
S,32576,130304008,487,0,0
S,32577,130308008,471,0,0
S,32578,130312008,454,0,0
S,32579,130316008,471,0,0
S,32580,130320008,487,0,0
S,32581,130324012,503,0,0
S,32582,130328008,519,0,0
S,32583,130332008,519,0,0
S,32584,130336008,519,0,0
S,32585,130340008,519,0,0
S,32586,130344008,519,0,0
S,32587,130348008,519,0,0
S,32588,130352008,519,0,0
S,32589,130356008,519,0,0
S,32590,130360008,519,0,0
S,32591,130364008,519,0,0
S,32592,130368008,522,0,0
S,32593,130372008,528,0,0
S,32594,130376012,533,0,0
S,32595,130380008,538,0,0
S,32596,130384008,543,0,0
S,32597,130388012,549,0,0
S,32598,130392008,554,0,0
S,32599,130396008,559,0,0
S,32600,130400008,563,0,0
S,32601,130404008,569,0,0
S,32602,130408008,574,0,0
S,32603,130412008,579,0,0
S,32604,130416008,584,0,0
S,32605,130420008,589,0,0
S,32606,130424008,595,0,0
S,32607,130428008,600,0,0
S,32608,130432008,600,0,0
S,32609,130436008,595,0,0
S,32610,130440008,589,0,0
S,32611,130444008,584,0,0
S,32612,130448012,579,0,0
S,32613,130452008,574,0,0
S,32614,130456008,569,0,0
S,32615,130460008,563,0,0
S,32616,130464008,558,0,0
S,32617,130468008,553,0,0
S,32618,130472008,548,0,0
S,32619,130476008,542,0,0
S,32620,130480012,537,0,0
S,32621,130484008,532,0,0
S,32622,130488008,527,0,0
S,32623,130492008,521,0,0
S,32624,130496008,518,0,0
S,32625,130500012,517,0,0
S,32626,130504008,517,0,0
S,32627,130508008,517,0,0
S,32628,130512008,517,0,0
S,32629,130516008,517,0,0
S,32630,130520008,517,0,0
S,32631,130524008,517,0,0
S,32632,130528008,517,0,0
S,32633,130532008,517,0,0
S,32634,130536008,517,0,0
S,32635,130540008,517,0,0
S,32636,130544008,517,0,0
S,32637,130548008,517,0,0
S,32638,130552008,517,0,0
S,32639,130556012,517,0,0
S,32640,130560008,517,0,0
S,32641,130564012,517,0,0
S,32642,130568012,517,0,0
S,32643,130572012,517,0,0
S,32644,130576008,517,0,0
S,32645,130580012,517,0,0
S,32646,130584008,517,0,0
S,32647,130588012,517,0,0
S,32648,130592012,517,0,0
S,32649,130596008,517,0,0
S,32650,130600012,516,0,0
S,32651,130604008,516,0,0
S,32652,130608012,516,0,0
S,32653,130612008,516,0,0
S,32654,130616008,516,0,0
S,32655,130620008,516,0,0
S,32656,130624008,519,0,0
S,32657,130628008,523,0,0
S,32658,130632008,527,0,0
S,32659,130636008,530,0,0
S,32660,130640012,534,0,0
S,32661,130644012,538,0,0
S,32662,130648012,542,0,0
S,32663,130652008,542,0,0
S,32664,130656008,538,0,0
S,32665,130660008,534,0,0
S,32666,130664008,530,0,0
S,32667,130668008,527,0,0
S,32668,130672008,523,0,0
S,32669,130676008,519,0,0
S,32670,130680008,516,0,0
S,32671,130684008,516,0,0
S,32672,130688012,516,0,0
S,32673,130692008,516,0,0
S,32674,130696008,516,0,0
S,32675,130700008,515,0,0
S,32676,130704008,515,0,0
S,32677,130708008,515,0,0
S,32678,130712008,515,0,0
S,32679,130716008,515,0,0
S,32680,130720008,508,0,0
S,32681,130724008,493,0,0
S,32682,130728012,478,0,0
S,32683,130732008,478,0,0
S,32684,130736008,493,0,0
S,32685,130740008,508,0,0
S,32686,130744008,515,0,0
S,32687,130748012,515,0,0
S,32688,130752012,600,0,0
S,32689,130756008,685,0,0
S,32690,130760008,770,0,0
S,32691,130764008,685,0,0
S,32692,130768012,599,0,0
S,32693,130772008,515,0,0
S,32694,130776008,515,0,0
S,32695,130780008,499,0,0
S,32696,130784008,483,0,0
S,32697,130788008,467,0,0
S,32698,130792012,451,0,0
S,32699,130796008,467,0,0
S,32700,130800008,482,0,0
S,32701,130804008,498,0,0
S,32702,130808008,514,0,0
S,32703,130812012,514,0,0
S,32704,130816008,514,0,0
S,32705,130820008,514,0,0
S,32706,130824008,514,0,0
S,32707,130828008,514,0,0
S,32708,130832008,514,0,0
S,32709,130836008,514,0,0
S,32710,130840008,514,0,0
S,32711,130844008,514,0,0
S,32712,130848008,517,0,0
S,32713,130852008,523,0,0
S,32714,130856008,528,0,0
S,32715,130860008,533,0,0
S,32716,130864008,538,0,0
S,32717,130868008,544,0,0
S,32718,130872008,549,0,0
S,32719,130876008,554,0,0
S,32720,130880008,559,0,0
S,32721,130884008,565,0,0
S,32722,130888008,570,0,0
S,32723,130892008,575,0,0
S,32724,130896012,580,0,0
S,32725,130900008,584,0,0
S,32726,130904008,590,0,0
S,32727,130908008,595,0,0
S,32728,130912012,595,0,0
S,32729,130916008,590,0,0
S,32730,130920008,584,0,0
S,32731,130924008,579,0,0
S,32732,130928008,574,0,0
S,32733,130932008,569,0,0
S,32734,130936008,564,0,0
S,32735,130940008,558,0,0
S,32736,130944008,553,0,0
S,32737,130948008,548,0,0
S,32738,130952008,543,0,0
S,32739,130956008,537,0,0
S,32740,130960008,532,0,0
S,32741,130964008,527,0,0
S,32742,130968008,522,0,0
S,32743,130972008,516,0,0
S,32744,130976012,513,0,0
S,32745,130980008,513,0,0
S,32746,130984008,513,0,0
S,32747,130988008,513,0,0
S,32748,130992008,513,0,0
S,32749,130996008,513,0,0
S,32750,131000012,512,0,0
S,32751,131004008,512,0,0
S,32752,131008008,512,0,0
S,32753,131012008,512,0,0
S,32754,131016008,512,0,0
S,32755,131020008,512,0,0
S,32756,131024008,512,0,0
S,32757,131028008,512,0,0
S,32758,131032008,512,0,0
S,32759,131036008,512,0,0
S,32760,131040008,512,0,0
S,32761,131044008,512,0,0
S,32762,131048008,512,0,0
S,32763,131052008,512,0,0
S,32764,131056008,512,0,0
S,32765,131060012,512,0,0
S,32766,131064008,512,0,0
S,32767,131068008,512,0,0
S,32768,131072008,512,0,0
S,32769,131076008,512,0,0
S,32770,131080008,512,0,0
S,32771,131084008,512,0,0
S,32772,131088008,512,0,0
S,32773,131092008,512,0,0
S,32774,131096008,512,0,0
S,32775,131100008,511,0,0
S,32776,131104008,514,0,0
S,32777,131108008,518,0,0
S,32778,131112008,522,0,0
S,32779,131116008,525,0,0
S,32780,131120008,529,0,0
S,32781,131124012,533,0,0
S,32782,131128008,537,0,0
S,32783,131132008,537,0,0
S,32784,131136008,533,0,0
S,32785,131140008,529,0,0
S,32786,131144008,525,0,0
S,32787,131148008,522,0,0
S,32788,131152008,518,0,0
S,32789,131156012,514,0,0
S,32790,131160008,511,0,0
S,32791,131164008,511,0,0
S,32792,131168008,511,0,0
S,32793,131172008,511,0,0
S,32794,131176008,511,0,0
S,32795,131180008,511,0,0
S,32796,131184008,511,0,0
S,32797,131188008,511,0,0
S,32798,131192008,511,0,0
S,32799,131196008,511,0,0
S,32800,131200012,503,0,0
S,32801,131204008,488,0,0
S,32802,131208008,473,0,0
S,32803,131212012,473,0,0
S,32804,131216012,488,0,0
S,32805,131220008,503,0,0
S,32806,131224008,510,0,0
S,32807,131228012,510,0,0
S,32808,131232008,595,0,0
S,32809,131236008,680,0,0
S,32810,131240012,764,0,0
S,32811,131244008,680,0,0
S,32812,131248008,595,0,0
S,32813,131252008,510,0,0
S,32814,131256012,510,0,0
S,32815,131260012,494,0,0
S,32816,131264012,478,0,0
S,32817,131268008,462,0,0
S,32818,131272008,445,0,0
S,32819,131276008,462,0,0
S,32820,131280008,478,0,0
S,32821,131284008,494,0,0
S,32822,131288008,510,0,0
S,32823,131292012,510,0,0
S,32824,131296008,510,0,0
S,32825,131300008,509,0,0
S,32826,131304008,509,0,0
S,32827,131308008,509,0,0
S,32828,131312008,509,0,0
S,32829,131316008,509,0,0
S,32830,131320008,509,0,0
S,32831,131324008,509,0,0
S,32832,131328008,512,0,0
S,32833,131332008,518,0,0
S,32834,131336008,523,0,0
S,32835,131340008,528,0,0
S,32836,131344012,533,0,0
S,32837,131348008,539,0,0
S,32838,131352008,544,0,0
S,32839,131356008,549,0,0
S,32840,131360008,554,0,0
S,32841,131364008,560,0,0
S,32842,131368008,565,0,0
S,32843,131372008,570,0,0
S,32844,131376012,575,0,0
S,32845,131380008,580,0,0
S,32846,131384008,586,0,0
S,32847,131388008,591,0,0
S,32848,131392008,591,0,0
S,32849,131396008,586,0,0
S,32850,131400008,579,0,0
S,32851,131404008,574,0,0
S,32852,131408012,569,0,0
S,32853,131412008,564,0,0
S,32854,131416008,559,0,0
S,32855,131420008,553,0,0
S,32856,131424008,548,0,0
S,32857,131428008,543,0,0
S,32858,131432008,538,0,0
S,32859,131436008,532,0,0
S,32860,131440012,527,0,0
S,32861,131444008,522,0,0
S,32862,131448008,517,0,0
S,32863,131452008,511,0,0
S,32864,131456008,508,0,0
S,32865,131460008,508,0,0
S,32866,131464012,508,0,0
S,32867,131468008,508,0,0
S,32868,131472012,508,0,0
S,32869,131476008,508,0,0
S,32870,131480012,508,0,0
S,32871,131484008,508,0,0
S,32872,131488008,508,0,0
S,32873,131492012,508,0,0
S,32874,131496008,508,0,0
S,32875,131500008,507,0,0
S,32876,131504008,507,0,0
S,32877,131508008,507,0,0
S,32878,131512008,507,0,0
S,32879,131516008,507,0,0
S,32880,131520008,507,0,0
S,32881,131524008,507,0,0
S,32882,131528008,507,0,0
S,32883,131532008,507,0,0
S,32884,131536008,507,0,0
S,32885,131540008,507,0,0
S,32886,131544008,507,0,0
S,32887,131548008,507,0,0
S,32888,131552008,507,0,0
S,32889,131556008,507,0,0
S,32890,131560012,507,0,0
S,32891,131564008,507,0,0
S,32892,131568008,507,0,0
S,32893,131572008,507,0,0
S,32894,131576008,507,0,0
S,32895,131580008,507,0,0
S,32896,131584008,510,0,0
S,32897,131588008,514,0,0
S,32898,131592008,518,0,0
S,32899,131596012,521,0,0
S,32900,131600012,524,0,0
S,32901,131604008,528,0,0
S,32902,131608008,532,0,0
S,32903,131612008,532,0,0
S,32904,131616008,528,0,0
S,32905,131620008,524,0,0
S,32906,131624008,520,0,0
S,32907,131628008,517,0,0
S,32908,131632012,513,0,0
S,32909,131636008,509,0,0
S,32910,131640008,506,0,0
S,32911,131644008,506,0,0
S,32912,131648008,506,0,0
S,32913,131652012,506,0,0
S,32914,131656008,506,0,0
S,32915,131660008,506,0,0
S,32916,131664008,506,0,0
S,32917,131668012,506,0,0
S,32918,131672008,506,0,0
S,32919,131676008,506,0,0
S,32920,131680008,499,0,0
S,32921,131684008,484,0,0
S,32922,131688008,469,0,0
S,32923,131692008,469,0,0
S,32924,131696008,484,0,0
S,32925,131700008,498,0,0
S,32926,131704008,505,0,0
S,32927,131708008,505,0,0
S,32928,131712008,590,0,0
S,32929,131716008,675,0,0
S,32930,131720012,759,0,0
S,32931,131724012,674,0,0
S,32932,131728008,590,0,0
S,32933,131732008,505,0,0
S,32934,131736008,505,0,0
S,32935,131740008,489,0,0
S,32936,131744008,473,0,0
S,32937,131748008,457,0,0
S,32938,131752012,441,0,0
S,32939,131756012,457,0,0
S,32940,131760008,473,0,0
S,32941,131764008,489,0,0
S,32942,131768008,505,0,0
S,32943,131772008,505,0,0
S,32944,131776008,505,0,0
S,32945,131780008,505,0,0
S,32946,131784008,505,0,0
S,32947,131788008,505,0,0
S,32948,131792008,505,0,0
S,32949,131796008,505,0,0
S,32950,131800008,504,0,0
S,32951,131804008,504,0,0
S,32952,131808008,507,0,0
S,32953,131812008,513,0,0
S,32954,131816008,518,0,0
S,32955,131820008,523,0,0
S,32956,131824008,528,0,0
S,32957,131828008,534,0,0
S,32958,131832008,539,0,0
S,32959,131836008,544,0,0
S,32960,131840008,549,0,0
S,32961,131844008,555,0,0
S,32962,131848012,560,0,0
S,32963,131852008,565,0,0
S,32964,131856012,570,0,0
S,32965,131860008,575,0,0
S,32966,131864008,581,0,0
S,32967,131868008,586,0,0
S,32968,131872008,586,0,0
S,32969,131876008,581,0,0
S,32970,131880008,575,0,0
S,32971,131884008,570,0,0
S,32972,131888012,565,0,0
S,32973,131892008,560,0,0
S,32974,131896008,555,0,0
S,32975,131900012,548,0,0
S,32976,131904008,543,0,0
S,32977,131908008,538,0,0
S,32978,131912012,533,0,0
S,32979,131916008,527,0,0
S,32980,131920008,522,0,0
S,32981,131924008,517,0,0
S,32982,131928008,512,0,0
S,32983,131932008,506,0,0
S,32984,131936008,503,0,0
S,32985,131940008,503,0,0
S,32986,131944008,503,0,0
S,32987,131948008,503,0,0
S,32988,131952012,503,0,0
S,32989,131956008,503,0,0
S,32990,131960008,503,0,0
S,32991,131964008,503,0,0
S,32992,131968008,503,0,0
S,32993,131972008,503,0,0
S,32994,131976008,503,0,0
S,32995,131980008,503,0,0
S,32996,131984008,503,0,0
S,32997,131988008,503,0,0
S,32998,131992008,503,0,0
S,32999,131996008,503,0,0
S,33000,132000008,502,0,0
S,33001,132004008,502,0,0
S,33002,132008008,502,0,0
S,33003,132012008,502,0,0
S,33004,132016008,502,0,0
S,33005,132020008,502,0,0
S,33006,132024008,502,0,0
S,33007,132028012,502,0,0
S,33008,132032008,502,0,0
S,33009,132036012,502,0,0
S,33010,132040012,502,0,0
S,33011,132044012,502,0,0
S,33012,132048008,502,0,0
S,33013,132052008,502,0,0
S,33014,132056008,502,0,0
S,33015,132060008,502,0,0
S,33016,132064008,505,0,0
S,33017,132068008,509,0,0
S,33018,132072008,513,0,0
S,33019,132076012,516,0,0
S,33020,132080008,520,0,0
S,33021,132084012,524,0,0
S,33022,132088008,528,0,0
S,33023,132092008,528,0,0
S,33024,132096008,524,0,0
S,33025,132100008,521,0,0
S,33026,132104008,517,0,0
S,33027,132108008,514,0,0
S,33028,132112008,510,0,0
S,33029,132116008,506,0,0
S,33030,132120008,503,0,0
S,33031,132124008,503,0,0
S,33032,132128008,503,0,0
S,33033,132132008,503,0,0
S,33034,132136008,503,0,0
S,33035,132140008,503,0,0
S,33036,132144012,503,0,0
S,33037,132148008,503,0,0
S,33038,132152008,503,0,0
S,33039,132156008,503,0,0
S,33040,132160008,496,0,0
S,33041,132164012,481,0,0
S,33042,132168008,466,0,0
S,33043,132172008,466,0,0
S,33044,132176008,481,0,0
S,33045,132180008,496,0,0
S,33046,132184012,503,0,0
S,33047,132188012,503,0,0
S,33048,132192012,588,0,0
S,33049,132196012,673,0,0
S,33050,132200008,759,0,0
S,33051,132204008,674,0,0
S,33052,132208012,588,0,0
S,33053,132212008,504,0,0
S,33054,132216008,504,0,0
S,33055,132220008,488,0,0
S,33056,132224008,472,0,0
S,33057,132228008,456,0,0
S,33058,132232012,440,0,0
S,33059,132236008,456,0,0
S,33060,132240008,472,0,0
S,33061,132244008,488,0,0
S,33062,132248008,504,0,0
S,33063,132252008,504,0,0
S,33064,132256008,504,0,0
S,33065,132260008,504,0,0
S,33066,132264008,504,0,0
S,33067,132268008,504,0,0
S,33068,132272008,504,0,0
S,33069,132276008,504,0,0
S,33070,132280008,504,0,0
S,33071,132284012,504,0,0
S,33072,132288012,507,0,0
S,33073,132292008,513,0,0
S,33074,132296008,518,0,0
S,33075,132300008,524,0,0
S,33076,132304012,529,0,0
S,33077,132308008,535,0,0
S,33078,132312008,540,0,0
S,33079,132316008,545,0,0
S,33080,132320008,550,0,0
S,33081,132324008,556,0,0
S,33082,132328012,561,0,0
S,33083,132332008,566,0,0
S,33084,132336008,571,0,0
S,33085,132340008,576,0,0
S,33086,132344008,582,0,0
S,33087,132348008,587,0,0
S,33088,132352008,587,0,0
S,33089,132356008,582,0,0
S,33090,132360008,576,0,0
S,33091,132364008,571,0,0
S,33092,132368008,566,0,0
S,33093,132372008,561,0,0
S,33094,132376008,556,0,0
S,33095,132380008,550,0,0
S,33096,132384008,545,0,0
S,33097,132388008,540,0,0
S,33098,132392012,535,0,0
S,33099,132396008,529,0,0
S,33100,132400008,525,0,0
S,33101,132404008,520,0,0
S,33102,132408008,515,0,0
S,33103,132412012,509,0,0
S,33104,132416008,506,0,0
S,33105,132420008,506,0,0
S,33106,132424008,506,0,0
S,33107,132428008,506,0,0
S,33108,132432008,506,0,0
S,33109,132436008,506,0,0
S,33110,132440008,506,0,0
S,33111,132444008,506,0,0
S,33112,132448008,506,0,0
S,33113,132452008,506,0,0
S,33114,132456008,506,0,0
S,33115,132460008,506,0,0
S,33116,132464008,506,0,0
S,33117,132468008,506,0,0
S,33118,132472008,506,0,0
S,33119,132476008,506,0,0
S,33120,132480012,506,0,0
S,33121,132484008,506,0,0
S,33122,132488012,506,0,0
S,33123,132492008,506,0,0
S,33124,132496008,506,0,0
S,33125,132500008,507,0,0
S,33126,132504008,507,0,0
S,33127,132508008,507,0,0
S,33128,132512008,507,0,0
S,33129,132516008,507,0,0
S,33130,132520008,507,0,0
S,33131,132524008,507,0,0
S,33132,132528008,507,0,0
S,33133,132532008,507,0,0
S,33134,132536008,507,0,0
S,33135,132540008,507,0,0
S,33136,132544008,510,0,0
S,33137,132548008,514,0,0
S,33138,132552012,518,0,0
S,33139,132556008,521,0,0
S,33140,132560008,525,0,0
S,33141,132564012,529,0,0
S,33142,132568008,533,0,0
S,33143,132572008,533,0,0
S,33144,132576008,529,0,0
S,33145,132580008,525,0,0
S,33146,132584008,521,0,0
S,33147,132588008,518,0,0
S,33148,132592012,514,0,0
S,33149,132596008,510,0,0
S,33150,132600008,508,0,0
S,33151,132604008,508,0,0
S,33152,132608008,508,0,0
S,33153,132612008,508,0,0
S,33154,132616008,508,0,0
S,33155,132620008,508,0,0
S,33156,132624008,508,0,0
S,33157,132628008,508,0,0
S,33158,132632008,508,0,0
S,33159,132636008,508,0,0
S,33160,132640008,501,0,0
S,33161,132644008,486,0,0
S,33162,132648008,471,0,0
S,33163,132652008,471,0,0
S,33164,132656008,486,0,0
S,33165,132660008,501,0,0
S,33166,132664008,508,0,0
S,33167,132668008,508,0,0
S,33168,132672008,593,0,0
S,33169,132676008,678,0,0
S,33170,132680012,762,0,0
S,33171,132684008,678,0,0
S,33172,132688008,593,0,0
S,33173,132692012,508,0,0
S,33174,132696008,508,0,0
S,33175,132700008,493,0,0
S,33176,132704008,477,0,0
S,33177,132708008,461,0,0
S,33178,132712008,444,0,0
S,33179,132716008,461,0,0
S,33180,132720008,477,0,0
S,33181,132724008,493,0,0
S,33182,132728008,509,0,0
S,33183,132732012,509,0,0
S,33184,132736008,509,0,0
S,33185,132740008,509,0,0
S,33186,132744008,509,0,0
S,33187,132748008,509,0,0
S,33188,132752008,509,0,0
S,33189,132756012,509,0,0
S,33190,132760008,509,0,0
S,33191,132764008,509,0,0
S,33192,132768008,512,0,0
S,33193,132772008,518,0,0
S,33194,132776008,523,0,0
S,33195,132780008,528,0,0
S,33196,132784008,533,0,0
S,33197,132788008,539,0,0
S,33198,132792008,544,0,0
S,33199,132796008,549,0,0
S,33200,132800008,555,0,0
S,33201,132804008,561,0,0
S,33202,132808008,566,0,0
S,33203,132812008,571,0,0
S,33204,132816008,576,0,0
S,33205,132820008,581,0,0
S,33206,132824008,587,0,0
S,33207,132828008,592,0,0
S,33208,132832008,592,0,0
S,33209,132836008,587,0,0
S,33210,132840008,581,0,0
S,33211,132844008,576,0,0
S,33212,132848008,571,0,0
S,33213,132852008,566,0,0
S,33214,132856008,561,0,0
S,33215,132860008,555,0,0
S,33216,132864008,550,0,0
S,33217,132868008,545,0,0
S,33218,132872008,540,0,0
S,33219,132876008,534,0,0
S,33220,132880008,529,0,0
S,33221,132884012,524,0,0
S,33222,132888008,519,0,0
S,33223,132892008,513,0,0
S,33224,132896008,510,0,0
S,33225,132900008,511,0,0
S,33226,132904008,511,0,0
S,33227,132908008,511,0,0
S,33228,132912012,511,0,0
S,33229,132916008,511,0,0
S,33230,132920012,511,0,0
S,33231,132924008,511,0,0
S,33232,132928008,511,0,0
S,33233,132932008,511,0,0
S,33234,132936008,511,0,0
S,33235,132940008,511,0,0
S,33236,132944008,511,0,0
S,33237,132948012,511,0,0
S,33238,132952008,511,0,0
S,33239,132956008,511,0,0
S,33240,132960008,511,0,0
S,33241,132964012,511,0,0
S,33242,132968008,511,0,0
S,33243,132972008,511,0,0
S,33244,132976008,511,0,0
S,33245,132980008,511,0,0
S,33246,132984008,511,0,0
S,33247,132988008,511,0,0
S,33248,132992008,511,0,0
S,33249,132996008,511,0,0
S,33250,133000012,512,0,0
S,33251,133004008,512,0,0
S,33252,133008008,512,0,0
S,33253,133012008,512,0,0
S,33254,133016008,512,0,0
S,33255,133020008,512,0,0
S,33256,133024008,515,0,0
S,33257,133028008,519,0,0
S,33258,133032008,523,0,0
S,33259,133036008,526,0,0
S,33260,133040008,530,0,0
S,33261,133044008,534,0,0
S,33262,133048008,538,0,0
S,33263,133052008,538,0,0
S,33264,133056008,534,0,0
S,33265,133060008,530,0,0
S,33266,133064008,526,0,0
S,33267,133068012,523,0,0
S,33268,133072008,519,0,0
S,33269,133076008,515,0,0
S,33270,133080008,512,0,0
S,33271,133084012,512,0,0
S,33272,133088008,512,0,0
S,33273,133092008,512,0,0
S,33274,133096008,512,0,0
S,33275,133100008,513,0,0
S,33276,133104008,513,0,0
S,33277,133108008,513,0,0
S,33278,133112008,513,0,0
S,33279,133116008,513,0,0
S,33280,133120008,506,0,0
S,33281,133124008,491,0,0
S,33282,133128012,476,0,0
S,33283,133132008,476,0,0
S,33284,133136008,491,0,0
S,33285,133140008,506,0,0
S,33286,133144012,513,0,0
S,33287,133148008,513,0,0
S,33288,133152008,598,0,0
S,33289,133156008,683,0,0
S,33290,133160008,768,0,0
S,33291,133164008,683,0,0
S,33292,133168008,598,0,0
S,33293,133172008,513,0,0
S,33294,133176008,513,0,0
S,33295,133180008,497,0,0
S,33296,133184008,481,0,0
S,33297,133188008,465,0,0
S,33298,133192012,449,0,0
S,33299,133196008,465,0,0
S,33300,133200012,482,0,0
S,33301,133204008,498,0,0
S,33302,133208008,514,0,0
S,33303,133212008,514,0,0
S,33304,133216008,514,0,0
S,33305,133220008,514,0,0
S,33306,133224008,514,0,0
S,33307,133228008,514,0,0
S,33308,133232012,514,0,0
S,33309,133236008,514,0,0
S,33310,133240008,514,0,0
S,33311,133244008,514,0,0
S,33312,133248008,517,0,0
S,33313,133252012,523,0,0
S,33314,133256008,528,0,0
S,33315,133260008,533,0,0
S,33316,133264008,538,0,0
S,33317,133268008,544,0,0
S,33318,133272012,549,0,0
S,33319,133276012,554,0,0
S,33320,133280008,559,0,0
S,33321,133284008,565,0,0
S,33322,133288008,570,0,0
S,33323,133292008,575,0,0
S,33324,133296008,580,0,0
S,33325,133300008,586,0,0
S,33326,133304008,592,0,0
S,33327,133308008,597,0,0
S,33328,133312008,597,0,0
S,33329,133316008,592,0,0
S,33330,133320008,586,0,0
S,33331,133324008,581,0,0
S,33332,133328012,576,0,0
S,33333,133332008,571,0,0
S,33334,133336008,566,0,0
S,33335,133340008,560,0,0
S,33336,133344008,555,0,0
S,33337,133348008,550,0,0
S,33338,133352008,545,0,0
S,33339,133356008,539,0,0
S,33340,133360008,534,0,0
S,33341,133364008,529,0,0
S,33342,133368008,524,0,0
S,33343,133372008,518,0,0
S,33344,133376008,515,0,0
S,33345,133380012,515,0,0
S,33346,133384008,515,0,0
S,33347,133388008,515,0,0
S,33348,133392008,515,0,0
S,33349,133396008,515,0,0
S,33350,133400008,516,0,0
S,33351,133404008,516,0,0
S,33352,133408008,516,0,0
S,33353,133412008,516,0,0
S,33354,133416008,516,0,0
S,33355,133420008,516,0,0
S,33356,133424008,516,0,0
S,33357,133428008,516,0,0
S,33358,133432008,516,0,0
S,33359,133436012,516,0,0
S,33360,133440008,516,0,0
S,33361,133444008,516,0,0
S,33362,133448008,516,0,0
S,33363,133452008,516,0,0
S,33364,133456008,516,0,0
S,33365,133460008,516,0,0
S,33366,133464008,516,0,0
S,33367,133468008,516,0,0
S,33368,133472008,516,0,0
S,33369,133476008,516,0,0
S,33370,133480008,516,0,0
S,33371,133484008,516,0,0
S,33372,133488008,516,0,0
S,33373,133492008,516,0,0
S,33374,133496008,516,0,0
S,33375,133500008,517,0,0
S,33376,133504008,520,0,0
S,33377,133508008,524,0,0
S,33378,133512012,528,0,0
S,33379,133516008,531,0,0
S,33380,133520008,535,0,0
S,33381,133524008,539,0,0
S,33382,133528012,543,0,0
S,33383,133532008,543,0,0
S,33384,133536008,539,0,0
S,33385,133540008,535,0,0
S,33386,133544012,531,0,0
S,33387,133548012,528,0,0
S,33388,133552008,524,0,0
S,33389,133556008,520,0,0
S,33390,133560008,517,0,0
S,33391,133564008,517,0,0
S,33392,133568012,517,0,0
S,33393,133572008,517,0,0
S,33394,133576008,517,0,0
S,33395,133580008,517,0,0
S,33396,133584008,517,0,0
S,33397,133588008,517,0,0
S,33398,133592008,517,0,0
S,33399,133596008,517,0,0
S,33400,133600008,511,0,0
S,33401,133604008,496,0,0
S,33402,133608012,481,0,0
S,33403,133612008,481,0,0
S,33404,133616008,496,0,0
S,33405,133620008,511,0,0
S,33406,133624008,518,0,0
S,33407,133628008,518,0,0
S,33408,133632012,603,0,0
S,33409,133636008,688,0,0
S,33410,133640008,773,0,0
S,33411,133644008,688,0,0
S,33412,133648008,603,0,0
S,33413,133652008,518,0,0
S,33414,133656008,518,0,0
S,33415,133660008,502,0,0
S,33416,133664008,486,0,0
S,33417,133668008,470,0,0
S,33418,133672008,453,0,0
S,33419,133676008,470,0,0
S,33420,133680008,486,0,0
S,33421,133684008,502,0,0
S,33422,133688008,518,0,0
S,33423,133692008,518,0,0
S,33424,133696012,518,0,0
S,33425,133700008,519,0,0
S,33426,133704008,519,0,0
S,33427,133708008,519,0,0
S,33428,133712008,519,0,0
S,33429,133716008,519,0,0
S,33430,133720012,519,0,0
S,33431,133724008,519,0,0
S,33432,133728008,522,0,0
S,33433,133732008,528,0,0
S,33434,133736008,533,0,0
S,33435,133740008,538,0,0
S,33436,133744008,543,0,0
S,33437,133748012,549,0,0
S,33438,133752012,554,0,0
S,33439,133756008,559,0,0
S,33440,133760008,564,0,0
S,33441,133764008,570,0,0
S,33442,133768008,575,0,0
S,33443,133772008,580,0,0
S,33444,133776008,585,0,0
S,33445,133780008,590,0,0
S,33446,133784008,596,0,0
S,33447,133788008,601,0,0
S,33448,133792008,601,0,0
S,33449,133796008,596,0,0
S,33450,133800008,591,0,0
S,33451,133804008,586,0,0
S,33452,133808008,581,0,0
S,33453,133812012,576,0,0
S,33454,133816008,571,0,0
S,33455,133820008,565,0,0
S,33456,133824008,560,0,0
S,33457,133828008,555,0,0
S,33458,133832012,550,0,0
S,33459,133836008,544,0,0
S,33460,133840012,539,0,0
S,33461,133844008,534,0,0
S,33462,133848008,529,0,0
S,33463,133852008,523,0,0
S,33464,133856008,520,0,0
S,33465,133860012,520,0,0
S,33466,133864008,520,0,0
S,33467,133868008,520,0,0
S,33468,133872008,520,0,0
S,33469,133876012,520,0,0
S,33470,133880008,520,0,0
S,33471,133884008,520,0,0
S,33472,133888012,520,0,0
S,33473,133892008,520,0,0
S,33474,133896008,520,0,0
S,33475,133900008,521,0,0
S,33476,133904008,521,0,0
S,33477,133908008,521,0,0
S,33478,133912008,521,0,0
S,33479,133916008,521,0,0
S,33480,133920008,521,0,0
S,33481,133924008,521,0,0
S,33482,133928012,521,0,0
S,33483,133932008,521,0,0
S,33484,133936008,521,0,0
S,33485,133940008,521,0,0
S,33486,133944008,521,0,0
S,33487,133948012,521,0,0
S,33488,133952008,521,0,0
S,33489,133956008,521,0,0
S,33490,133960008,521,0,0
S,33491,133964012,521,0,0
S,33492,133968008,521,0,0
S,33493,133972012,521,0,0
S,33494,133976008,521,0,0
S,33495,133980008,521,0,0
S,33496,133984008,524,0,0
S,33497,133988008,528,0,0
S,33498,133992008,532,0,0
S,33499,133996008,535,0,0
S,33500,134000008,540,0,0
S,33501,134004008,544,0,0
S,33502,134008008,548,0,0
S,33503,134012008,548,0,0
S,33504,134016008,544,0,0
S,33505,134020008,540,0,0
S,33506,134024008,536,0,0
S,33507,134028008,533,0,0
S,33508,134032008,529,0,0
S,33509,134036008,525,0,0
S,33510,134040008,522,0,0
S,33511,134044008,522,0,0
S,33512,134048008,522,0,0
S,33513,134052008,522,0,0
S,33514,134056008,522,0,0
S,33515,134060008,522,0,0
S,33516,134064008,522,0,0
S,33517,134068008,522,0,0
S,33518,134072008,522,0,0
S,33519,134076008,522,0,0
S,33520,134080008,515,0,0
S,33521,134084008,500,0,0
S,33522,134088012,485,0,0
S,33523,134092008,485,0,0
S,33524,134096008,500,0,0
S,33525,134100008,514,0,0
S,33526,134104008,521,0,0
S,33527,134108008,521,0,0
S,33528,134112008,606,0,0
S,33529,134116008,691,0,0
S,33530,134120008,776,0,0
S,33531,134124008,691,0,0
S,33532,134128008,606,0,0
S,33533,134132008,521,0,0
S,33534,134136008,521,0,0
S,33535,134140008,505,0,0
S,33536,134144008,489,0,0
S,33537,134148008,473,0,0
S,33538,134152012,457,0,0
S,33539,134156008,473,0,0
S,33540,134160012,489,0,0
S,33541,134164012,505,0,0
S,33542,134168008,521,0,0
S,33543,134172008,521,0,0
S,33544,134176012,521,0,0
S,33545,134180008,521,0,0
S,33546,134184008,521,0,0
S,33547,134188008,521,0,0
S,33548,134192008,521,0,0
S,33549,134196008,521,0,0
S,33550,134200012,520,0,0
S,33551,134204012,520,0,0
S,33552,134208008,523,0,0
S,33553,134212008,529,0,0
S,33554,134216012,534,0,0
S,33555,134220008,539,0,0
S,33556,134224012,544,0,0
S,33557,134228008,550,0,0
S,33558,134232008,555,0,0
S,33559,134236008,560,0,0
S,33560,134240008,565,0,0
S,33561,134244008,571,0,0
S,33562,134248008,576,0,0
S,33563,134252008,581,0,0
S,33564,134256008,586,0,0
S,33565,134260008,591,0,0
S,33566,134264008,597,0,0
S,33567,134268008,602,0,0
S,33568,134272012,602,0,0
S,33569,134276008,597,0,0
S,33570,134280008,591,0,0
S,33571,134284008,586,0,0
S,33572,134288012,581,0,0
S,33573,134292008,576,0,0
S,33574,134296008,571,0,0
S,33575,134300008,564,0,0
S,33576,134304008,559,0,0
S,33577,134308008,554,0,0
S,33578,134312008,549,0,0
S,33579,134316008,543,0,0
S,33580,134320008,538,0,0
S,33581,134324008,533,0,0
S,33582,134328008,528,0,0
S,33583,134332008,522,0,0
S,33584,134336008,519,0,0
S,33585,134340008,519,0,0
S,33586,134344008,519,0,0
S,33587,134348008,519,0,0
S,33588,134352012,519,0,0
S,33589,134356008,519,0,0
S,33590,134360008,519,0,0
S,33591,134364008,519,0,0
S,33592,134368008,519,0,0
S,33593,134372012,519,0,0
S,33594,134376008,519,0,0
S,33595,134380008,519,0,0
S,33596,134384008,519,0,0
S,33597,134388008,519,0,0
S,33598,134392008,519,0,0
S,33599,134396008,519,0,0
S,33600,134400008,518,0,0
S,33601,134404008,518,0,0
S,33602,134408008,518,0,0
S,33603,134412008,518,0,0
S,33604,134416008,518,0,0
S,33605,134420012,518,0,0
S,33606,134424008,518,0,0
S,33607,134428008,518,0,0
S,33608,134432008,518,0,0
S,33609,134436008,518,0,0
S,33610,134440012,518,0,0
S,33611,134444008,518,0,0
S,33612,134448008,518,0,0
S,33613,134452008,518,0,0
S,33614,134456008,518,0,0
S,33615,134460008,518,0,0
S,33616,134464008,521,0,0
S,33617,134468008,525,0,0
S,33618,134472008,529,0,0
S,33619,134476008,532,0,0
S,33620,134480008,536,0,0
S,33621,134484008,540,0,0
S,33622,134488008,544,0,0
S,33623,134492008,544,0,0
S,33624,134496008,540,0,0
S,33625,134500012,535,0,0
S,33626,134504012,531,0,0
S,33627,134508008,528,0,0
S,33628,134512008,524,0,0
S,33629,134516008,520,0,0
S,33630,134520008,517,0,0
S,33631,134524008,517,0,0
S,33632,134528008,517,0,0
S,33633,134532008,517,0,0
S,33634,134536012,517,0,0
S,33635,134540008,517,0,0
S,33636,134544008,517,0,0
S,33637,134548008,517,0,0
S,33638,134552008,517,0,0
S,33639,134556008,517,0,0
S,33640,134560008,510,0,0
S,33641,134564008,495,0,0
S,33642,134568012,480,0,0
S,33643,134572012,480,0,0
S,33644,134576008,495,0,0
S,33645,134580008,510,0,0
S,33646,134584008,517,0,0
S,33647,134588008,517,0,0
S,33648,134592008,602,0,0
S,33649,134596008,687,0,0
S,33650,134600008,771,0,0
S,33651,134604008,686,0,0
S,33652,134608008,601,0,0
S,33653,134612008,516,0,0
S,33654,134616008,516,0,0
S,33655,134620008,500,0,0
S,33656,134624008,484,0,0
S,33657,134628008,468,0,0
S,33658,134632008,451,0,0
S,33659,134636008,468,0,0
S,33660,134640012,484,0,0
S,33661,134644012,500,0,0
S,33662,134648008,516,0,0
S,33663,134652012,516,0,0
S,33664,134656008,516,0,0
S,33665,134660012,516,0,0
S,33666,134664008,516,0,0
S,33667,134668008,516,0,0
S,33668,134672008,516,0,0
S,33669,134676008,516,0,0
S,33670,134680008,516,0,0
S,33671,134684008,516,0,0
S,33672,134688008,519,0,0
S,33673,134692008,525,0,0
S,33674,134696008,530,0,0
S,33675,134700008,534,0,0
S,33676,134704008,539,0,0
S,33677,134708008,545,0,0
S,33678,134712008,550,0,0
S,33679,134716008,555,0,0
S,33680,134720008,560,0,0
S,33681,134724008,566,0,0
S,33682,134728008,571,0,0
S,33683,134732008,576,0,0
S,33684,134736012,581,0,0
S,33685,134740008,586,0,0
S,33686,134744008,592,0,0
S,33687,134748008,597,0,0
S,33688,134752008,597,0,0
S,33689,134756008,592,0,0
S,33690,134760008,586,0,0
S,33691,134764008,581,0,0
S,33692,134768008,576,0,0
S,33693,134772008,571,0,0
S,33694,134776008,566,0,0
S,33695,134780008,560,0,0
S,33696,134784008,555,0,0
S,33697,134788008,550,0,0
S,33698,134792008,545,0,0
S,33699,134796008,539,0,0
S,33700,134800012,533,0,0
S,33701,134804008,528,0,0
S,33702,134808008,523,0,0
S,33703,134812008,517,0,0
S,33704,134816008,514,0,0
S,33705,134820008,514,0,0
S,33706,134824008,514,0,0
S,33707,134828008,514,0,0
S,33708,134832008,514,0,0
S,33709,134836008,514,0,0
S,33710,134840008,514,0,0
S,33711,134844012,514,0,0
S,33712,134848008,514,0,0
S,33713,134852008,514,0,0
S,33714,134856008,514,0,0
S,33715,134860008,514,0,0
S,33716,134864008,514,0,0
S,33717,134868008,514,0,0
S,33718,134872008,514,0,0
S,33719,134876008,514,0,0
S,33720,134880012,514,0,0
S,33721,134884008,514,0,0
S,33722,134888008,514,0,0
S,33723,134892008,514,0,0
S,33724,134896008,514,0,0
S,33725,134900008,513,0,0
S,33726,134904008,513,0,0
S,33727,134908012,513,0,0
S,33728,134912008,513,0,0
S,33729,134916008,513,0,0
S,33730,134920008,513,0,0
S,33731,134924008,513,0,0
S,33732,134928008,513,0,0
S,33733,134932008,513,0,0
S,33734,134936008,513,0,0
S,33735,134940012,513,0,0
S,33736,134944008,516,0,0
S,33737,134948008,520,0,0
S,33738,134952008,524,0,0
S,33739,134956008,527,0,0
S,33740,134960008,531,0,0
S,33741,134964012,535,0,0
S,33742,134968008,539,0,0
S,33743,134972008,539,0,0
S,33744,134976008,535,0,0
S,33745,134980008,531,0,0
S,33746,134984008,527,0,0
S,33747,134988008,524,0,0
S,33748,134992008,520,0,0
S,33749,134996008,516,0,0
S,33750,135000008,512,0,0
S,33751,135004008,512,0,0
S,33752,135008008,512,0,0
S,33753,135012008,512,0,0
S,33754,135016008,512,0,0
S,33755,135020008,512,0,0
S,33756,135024012,512,0,0
S,33757,135028008,512,0,0
S,33758,135032008,512,0,0
S,33759,135036008,512,0,0
S,33760,135040008,505,0,0
S,33761,135044008,490,0,0
S,33762,135048008,475,0,0
S,33763,135052012,475,0,0
S,33764,135056008,490,0,0
S,33765,135060008,505,0,0
S,33766,135064008,512,0,0
S,33767,135068008,512,0,0
S,33768,135072012,597,0,0
S,33769,135076008,682,0,0
S,33770,135080008,767,0,0
S,33771,135084008,682,0,0
S,33772,135088008,597,0,0
S,33773,135092008,512,0,0
S,33774,135096008,512,0,0
S,33775,135100008,495,0,0
S,33776,135104012,479,0,0
S,33777,135108008,463,0,0
S,33778,135112008,446,0,0
S,33779,135116008,463,0,0
S,33780,135120008,479,0,0
S,33781,135124008,495,0,0
S,33782,135128008,511,0,0
S,33783,135132012,511,0,0
S,33784,135136008,511,0,0
S,33785,135140008,511,0,0
S,33786,135144012,511,0,0
S,33787,135148012,511,0,0
S,33788,135152012,511,0,0
S,33789,135156012,511,0,0
S,33790,135160008,511,0,0
S,33791,135164008,511,0,0
S,33792,135168008,514,0,0
S,33793,135172008,520,0,0
S,33794,135176008,525,0,0
S,33795,135180008,530,0,0
S,33796,135184008,535,0,0
S,33797,135188012,541,0,0
S,33798,135192008,546,0,0
S,33799,135196008,551,0,0
S,33800,135200008,555,0,0
S,33801,135204008,561,0,0
S,33802,135208008,566,0,0
S,33803,135212008,571,0,0
S,33804,135216008,576,0,0
S,33805,135220012,581,0,0
S,33806,135224008,587,0,0
S,33807,135228008,592,0,0
S,33808,135232008,592,0,0
S,33809,135236008,587,0,0
S,33810,135240008,581,0,0
S,33811,135244008,576,0,0
S,33812,135248008,571,0,0
S,33813,135252012,566,0,0
S,33814,135256008,561,0,0
S,33815,135260012,555,0,0
S,33816,135264012,550,0,0
S,33817,135268008,545,0,0
S,33818,135272008,540,0,0
S,33819,135276008,534,0,0
S,33820,135280008,529,0,0
S,33821,135284012,524,0,0
S,33822,135288008,519,0,0
S,33823,135292008,513,0,0
S,33824,135296008,510,0,0
S,33825,135300008,509,0,0
S,33826,135304012,509,0,0
S,33827,135308008,509,0,0
S,33828,135312008,509,0,0
S,33829,135316008,509,0,0
S,33830,135320012,509,0,0
S,33831,135324008,509,0,0
S,33832,135328008,509,0,0
S,33833,135332008,509,0,0
S,33834,135336008,509,0,0
S,33835,135340008,509,0,0
S,33836,135344008,509,0,0
S,33837,135348008,509,0,0
S,33838,135352008,509,0,0
S,33839,135356008,509,0,0
S,33840,135360008,509,0,0
S,33841,135364008,509,0,0
S,33842,135368012,509,0,0
S,33843,135372012,509,0,0
S,33844,135376008,509,0,0
S,33845,135380008,509,0,0
S,33846,135384012,509,0,0
S,33847,135388008,509,0,0
S,33848,135392008,509,0,0
S,33849,135396008,509,0,0
S,33850,135400008,508,0,0
S,33851,135404008,508,0,0
S,33852,135408008,508,0,0
S,33853,135412008,508,0,0
S,33854,135416012,508,0,0
S,33855,135420008,508,0,0
S,33856,135424008,511,0,0
S,33857,135428008,515,0,0
S,33858,135432008,519,0,0
S,33859,135436008,522,0,0
S,33860,135440008,526,0,0
S,33861,135444008,530,0,0
S,33862,135448008,534,0,0
S,33863,135452008,534,0,0
S,33864,135456008,530,0,0
S,33865,135460008,526,0,0
S,33866,135464008,522,0,0
S,33867,135468008,519,0,0
S,33868,135472008,515,0,0
S,33869,135476008,511,0,0
S,33870,135480008,508,0,0
S,33871,135484008,508,0,0
S,33872,135488008,508,0,0
S,33873,135492008,508,0,0
S,33874,135496008,508,0,0
S,33875,135500008,507,0,0
S,33876,135504008,507,0,0
S,33877,135508008,507,0,0
S,33878,135512008,507,0,0
S,33879,135516008,507,0,0
S,33880,135520008,500,0,0
S,33881,135524012,485,0,0
S,33882,135528008,470,0,0
S,33883,135532008,470,0,0
S,33884,135536008,485,0,0
S,33885,135540008,500,0,0
S,33886,135544008,507,0,0
S,33887,135548008,507,0,0
S,33888,135552008,592,0,0
S,33889,135556008,677,0,0
S,33890,135560008,762,0,0
S,33891,135564008,677,0,0
S,33892,135568008,592,0,0
S,33893,135572008,507,0,0
S,33894,135576008,507,0,0
S,33895,135580008,491,0,0
S,33896,135584008,475,0,0
S,33897,135588008,459,0,0
S,33898,135592012,443,0,0
S,33899,135596008,459,0,0
S,33900,135600008,474,0,0
S,33901,135604008,490,0,0
S,33902,135608008,506,0,0
S,33903,135612008,506,0,0
S,33904,135616008,506,0,0
S,33905,135620008,506,0,0
S,33906,135624008,506,0,0
S,33907,135628012,506,0,0
S,33908,135632008,506,0,0
S,33909,135636008,506,0,0
S,33910,135640008,506,0,0
S,33911,135644008,506,0,0
S,33912,135648008,509,0,0
S,33913,135652008,515,0,0
S,33914,135656008,520,0,0
S,33915,135660008,525,0,0
S,33916,135664008,530,0,0
S,33917,135668008,536,0,0
S,33918,135672008,541,0,0
S,33919,135676008,546,0,0
S,33920,135680008,551,0,0
S,33921,135684012,557,0,0
S,33922,135688008,562,0,0
S,33923,135692012,567,0,0
S,33924,135696008,572,0,0
S,33925,135700008,576,0,0
S,33926,135704008,582,0,0
S,33927,135708008,587,0,0
S,33928,135712008,587,0,0
S,33929,135716008,582,0,0
S,33930,135720008,576,0,0
S,33931,135724008,571,0,0
S,33932,135728008,566,0,0
S,33933,135732008,561,0,0
S,33934,135736008,556,0,0
S,33935,135740012,550,0,0
S,33936,135744008,545,0,0
S,33937,135748008,540,0,0
S,33938,135752008,535,0,0
S,33939,135756008,529,0,0
S,33940,135760012,524,0,0
S,33941,135764008,519,0,0
S,33942,135768008,514,0,0
S,33943,135772012,508,0,0
S,33944,135776008,505,0,0
S,33945,135780008,505,0,0
S,33946,135784008,505,0,0
S,33947,135788008,505,0,0
S,33948,135792008,505,0,0
S,33949,135796012,505,0,0
S,33950,135800008,504,0,0
S,33951,135804008,504,0,0
S,33952,135808008,504,0,0
S,33953,135812008,504,0,0
S,33954,135816008,504,0,0
S,33955,135820008,504,0,0
S,33956,135824008,504,0,0
S,33957,135828012,504,0,0
S,33958,135832008,504,0,0
S,33959,135836008,504,0,0
S,33960,135840008,504,0,0
S,33961,135844008,504,0,0
S,33962,135848008,504,0,0
S,33963,135852008,504,0,0
S,33964,135856008,504,0,0
S,33965,135860012,504,0,0
S,33966,135864008,504,0,0
S,33967,135868008,504,0,0
S,33968,135872008,504,0,0
S,33969,135876008,504,0,0
S,33970,135880008,504,0,0
S,33971,135884008,504,0,0
S,33972,135888008,504,0,0
S,33973,135892008,504,0,0
S,33974,135896008,504,0,0
S,33975,135900008,503,0,0
S,33976,135904008,506,0,0
S,33977,135908008,510,0,0
S,33978,135912012,514,0,0
S,33979,135916008,517,0,0
S,33980,135920008,521,0,0
S,33981,135924012,525,0,0
S,33982,135928008,529,0,0
S,33983,135932008,529,0,0
S,33984,135936008,525,0,0
S,33985,135940012,521,0,0
S,33986,135944008,517,0,0
S,33987,135948008,514,0,0
S,33988,135952008,510,0,0
S,33989,135956008,506,0,0
S,33990,135960008,503,0,0
S,33991,135964008,503,0,0
S,33992,135968012,503,0,0
S,33993,135972008,503,0,0
S,33994,135976008,503,0,0
S,33995,135980008,503,0,0
S,33996,135984008,503,0,0
S,33997,135988008,503,0,0
S,33998,135992008,503,0,0
S,33999,135996008,503,0,0
S,34000,136000008,495,0,0
S,34001,136004008,480,0,0
S,34002,136008008,465,0,0
S,34003,136012008,465,0,0
S,34004,136016008,480,0,0
S,34005,136020008,495,0,0
S,34006,136024008,502,0,0
S,34007,136028008,502,0,0
S,34008,136032008,587,0,0
S,34009,136036008,672,0,0
S,34010,136040008,757,0,0
S,34011,136044008,672,0,0
S,34012,136048008,587,0,0
S,34013,136052008,502,0,0
S,34014,136056008,502,0,0
S,34015,136060008,486,0,0
S,34016,136064008,470,0,0
S,34017,136068008,454,0,0
S,34018,136072008,437,0,0
S,34019,136076012,454,0,0
S,34020,136080008,470,0,0
S,34021,136084008,486,0,0
S,34022,136088008,502,0,0
S,34023,136092012,502,0,0
S,34024,136096008,502,0,0
S,34025,136100008,503,0,0
S,34026,136104008,503,0,0
S,34027,136108008,503,0,0
S,34028,136112008,503,0,0
S,34029,136116008,503,0,0
S,34030,136120008,503,0,0
S,34031,136124008,503,0,0
S,34032,136128008,506,0,0
S,34033,136132008,512,0,0
S,34034,136136008,517,0,0
S,34035,136140008,522,0,0
S,34036,136144008,527,0,0
S,34037,136148008,533,0,0
S,34038,136152008,538,0,0
S,34039,136156008,543,0,0
S,34040,136160008,548,0,0
S,34041,136164008,554,0,0
S,34042,136168008,559,0,0
S,34043,136172008,564,0,0
S,34044,136176008,569,0,0
S,34045,136180008,574,0,0
S,34046,136184008,580,0,0
S,34047,136188012,585,0,0
S,34048,136192008,585,0,0
S,34049,136196008,580,0,0
S,34050,136200008,575,0,0
S,34051,136204008,570,0,0
S,34052,136208012,565,0,0
S,34053,136212008,560,0,0
S,34054,136216008,555,0,0
S,34055,136220008,549,0,0
S,34056,136224008,544,0,0
S,34057,136228008,539,0,0
S,34058,136232008,534,0,0
S,34059,136236012,528,0,0
S,34060,136240012,523,0,0
S,34061,136244008,518,0,0
S,34062,136248008,513,0,0
S,34063,136252008,507,0,0
S,34064,136256008,504,0,0
S,34065,136260008,504,0,0
S,34066,136264008,504,0,0
S,34067,136268008,504,0,0
S,34068,136272008,504,0,0
S,34069,136276008,504,0,0
S,34070,136280008,504,0,0
S,34071,136284008,504,0,0
S,34072,136288008,504,0,0
S,34073,136292012,504,0,0
S,34074,136296012,504,0,0
S,34075,136300008,505,0,0
S,34076,136304012,505,0,0
S,34077,136308008,505,0,0
S,34078,136312008,505,0,0
S,34079,136316008,505,0,0
S,34080,136320008,505,0,0
S,34081,136324008,505,0,0
S,34082,136328008,505,0,0
S,34083,136332008,505,0,0
S,34084,136336008,505,0,0
S,34085,136340008,505,0,0
S,34086,136344008,505,0,0
S,34087,136348008,505,0,0
S,34088,136352008,505,0,0
S,34089,136356008,505,0,0
S,34090,136360012,505,0,0
S,34091,136364008,505,0,0
S,34092,136368008,505,0,0
S,34093,136372008,505,0,0
S,34094,136376008,505,0,0
S,34095,136380012,505,0,0
S,34096,136384008,508,0,0
S,34097,136388008,512,0,0
S,34098,136392008,516,0,0
S,34099,136396008,519,0,0
S,34100,136400008,524,0,0
S,34101,136404012,528,0,0
S,34102,136408008,532,0,0
S,34103,136412008,532,0,0
S,34104,136416008,528,0,0
S,34105,136420012,524,0,0
S,34106,136424012,520,0,0
S,34107,136428012,517,0,0
S,34108,136432012,513,0,0
S,34109,136436008,509,0,0
S,34110,136440008,506,0,0
S,34111,136444008,506,0,0
S,34112,136448008,506,0,0
S,34113,136452008,506,0,0
S,34114,136456008,506,0,0
S,34115,136460008,506,0,0
S,34116,136464008,506,0,0
S,34117,136468008,506,0,0
S,34118,136472008,506,0,0
S,34119,136476008,506,0,0
S,34120,136480008,499,0,0
S,34121,136484008,484,0,0
S,34122,136488008,469,0,0
S,34123,136492008,469,0,0
S,34124,136496008,484,0,0
S,34125,136500008,500,0,0
S,34126,136504008,507,0,0
S,34127,136508008,507,0,0
S,34128,136512008,592,0,0
S,34129,136516008,677,0,0
S,34130,136520008,762,0,0
S,34131,136524008,677,0,0
S,34132,136528012,591,0,0
S,34133,136532012,507,0,0
S,34134,136536012,507,0,0
S,34135,136540008,491,0,0
S,34136,136544008,475,0,0
S,34137,136548008,459,0,0
S,34138,136552008,442,0,0
S,34139,136556008,459,0,0
S,34140,136560008,475,0,0
S,34141,136564008,491,0,0
S,34142,136568008,507,0,0
S,34143,136572008,507,0,0
S,34144,136576008,507,0,0
S,34145,136580008,507,0,0
S,34146,136584008,507,0,0
S,34147,136588008,507,0,0
S,34148,136592008,507,0,0
S,34149,136596008,507,0,0
S,34150,136600008,508,0,0
S,34151,136604008,508,0,0
S,34152,136608008,511,0,0
S,34153,136612008,517,0,0
S,34154,136616008,522,0,0
S,34155,136620008,527,0,0
S,34156,136624008,532,0,0
S,34157,136628012,538,0,0
S,34158,136632008,543,0,0
S,34159,136636008,548,0,0
S,34160,136640008,553,0,0
S,34161,136644008,559,0,0
S,34162,136648008,564,0,0
S,34163,136652008,569,0,0
S,34164,136656008,574,0,0
S,34165,136660008,579,0,0
S,34166,136664008,585,0,0
S,34167,136668008,590,0,0
S,34168,136672008,590,0,0
S,34169,136676008,585,0,0
S,34170,136680008,579,0,0
S,34171,136684008,574,0,0
S,34172,136688008,569,0,0
S,34173,136692008,564,0,0
S,34174,136696008,559,0,0
S,34175,136700012,554,0,0
S,34176,136704008,549,0,0
S,34177,136708008,544,0,0
S,34178,136712008,539,0,0
S,34179,136716008,533,0,0
S,34180,136720012,528,0,0
S,34181,136724008,523,0,0
S,34182,136728008,518,0,0
S,34183,136732008,512,0,0
S,34184,136736008,509,0,0
S,34185,136740008,509,0,0
S,34186,136744008,509,0,0
S,34187,136748008,509,0,0
S,34188,136752008,509,0,0
S,34189,136756008,509,0,0
S,34190,136760012,509,0,0
S,34191,136764008,509,0,0
S,34192,136768008,509,0,0
S,34193,136772008,509,0,0
S,34194,136776008,509,0,0
S,34195,136780008,509,0,0
S,34196,136784008,509,0,0
S,34197,136788008,509,0,0
S,34198,136792008,509,0,0
S,34199,136796008,509,0,0
S,34200,136800008,510,0,0
S,34201,136804012,510,0,0
S,34202,136808008,510,0,0
S,34203,136812008,510,0,0
S,34204,136816008,510,0,0
S,34205,136820012,510,0,0
S,34206,136824008,510,0,0
S,34207,136828008,510,0,0
S,34208,136832008,510,0,0
S,34209,136836012,510,0,0
S,34210,136840008,510,0,0
S,34211,136844008,510,0,0
S,34212,136848008,510,0,0
S,34213,136852008,510,0,0
S,34214,136856008,510,0,0
S,34215,136860008,510,0,0
S,34216,136864008,513,0,0
S,34217,136868008,517,0,0
S,34218,136872008,521,0,0
S,34219,136876008,524,0,0
S,34220,136880012,528,0,0
S,34221,136884008,532,0,0
S,34222,136888008,536,0,0
S,34223,136892008,536,0,0
S,34224,136896008,532,0,0
S,34225,136900012,529,0,0
S,34226,136904008,525,0,0
S,34227,136908008,522,0,0
S,34228,136912008,518,0,0
S,34229,136916008,514,0,0
S,34230,136920012,511,0,0
S,34231,136924008,511,0,0
S,34232,136928008,511,0,0
S,34233,136932012,511,0,0
S,34234,136936008,511,0,0
S,34235,136940012,511,0,0
S,34236,136944008,511,0,0
S,34237,136948008,511,0,0
S,34238,136952008,511,0,0
S,34239,136956008,511,0,0
S,34240,136960008,504,0,0
S,34241,136964012,489,0,0
S,34242,136968008,474,0,0
S,34243,136972008,474,0,0
S,34244,136976008,489,0,0
S,34245,136980008,504,0,0
S,34246,136984008,511,0,0
S,34247,136988008,511,0,0
S,34248,136992008,596,0,0
S,34249,136996008,681,0,0
S,34250,137000008,767,0,0
S,34251,137004008,682,0,0
S,34252,137008008,597,0,0
S,34253,137012008,512,0,0
S,34254,137016008,512,0,0
S,34255,137020012,496,0,0
S,34256,137024008,480,0,0
S,34257,137028012,464,0,0
S,34258,137032008,447,0,0
S,34259,137036008,464,0,0
S,34260,137040012,480,0,0
S,34261,137044008,496,0,0
S,34262,137048008,512,0,0
S,34263,137052012,512,0,0
S,34264,137056008,512,0,0
S,34265,137060008,512,0,0
S,34266,137064008,512,0,0
S,34267,137068008,512,0,0
S,34268,137072008,512,0,0
S,34269,137076008,512,0,0
S,34270,137080008,512,0,0
S,34271,137084008,512,0,0
S,34272,137088008,515,0,0
S,34273,137092008,521,0,0
S,34274,137096008,526,0,0
S,34275,137100008,532,0,0
S,34276,137104012,537,0,0
S,34277,137108008,543,0,0
S,34278,137112008,548,0,0
S,34279,137116012,553,0,0
S,34280,137120008,558,0,0
S,34281,137124008,564,0,0
S,34282,137128008,569,0,0
S,34283,137132008,574,0,0
S,34284,137136008,579,0,0
S,34285,137140012,584,0,0
S,34286,137144008,590,0,0
S,34287,137148008,595,0,0
S,34288,137152008,595,0,0
S,34289,137156008,590,0,0
S,34290,137160008,584,0,0
S,34291,137164012,579,0,0
S,34292,137168008,574,0,0
S,34293,137172008,569,0,0
S,34294,137176008,564,0,0
S,34295,137180008,558,0,0
S,34296,137184008,553,0,0
S,34297,137188008,548,0,0
S,34298,137192012,543,0,0
S,34299,137196008,537,0,0
S,34300,137200008,533,0,0
S,34301,137204008,528,0,0
S,34302,137208008,523,0,0
S,34303,137212008,517,0,0
S,34304,137216008,514,0,0
S,34305,137220008,514,0,0
S,34306,137224008,514,0,0
S,34307,137228012,514,0,0
S,34308,137232008,514,0,0
S,34309,137236012,514,0,0
S,34310,137240008,514,0,0
S,34311,137244008,514,0,0
S,34312,137248008,514,0,0
S,34313,137252008,514,0,0
S,34314,137256008,514,0,0
S,34315,137260008,514,0,0
S,34316,137264008,514,0,0
S,34317,137268008,514,0,0
S,34318,137272012,514,0,0
S,34319,137276008,514,0,0
S,34320,137280008,514,0,0
S,34321,137284008,514,0,0
S,34322,137288008,514,0,0
S,34323,137292008,514,0,0
S,34324,137296008,514,0,0
S,34325,137300008,515,0,0
S,34326,137304008,515,0,0
S,34327,137308012,515,0,0
S,34328,137312008,515,0,0
S,34329,137316008,515,0,0
S,34330,137320008,515,0,0
S,34331,137324012,515,0,0
S,34332,137328008,515,0,0
S,34333,137332012,515,0,0
S,34334,137336008,515,0,0
S,34335,137340008,515,0,0
S,34336,137344008,518,0,0
S,34337,137348008,522,0,0
S,34338,137352008,526,0,0
S,34339,137356008,529,0,0
S,34340,137360008,533,0,0
S,34341,137364008,537,0,0
S,34342,137368012,541,0,0
S,34343,137372008,541,0,0
S,34344,137376008,537,0,0
S,34345,137380008,533,0,0
S,34346,137384008,529,0,0
S,34347,137388008,526,0,0
S,34348,137392008,522,0,0
S,34349,137396008,518,0,0
S,34350,137400008,516,0,0
S,34351,137404008,516,0,0
S,34352,137408008,516,0,0
S,34353,137412012,516,0,0
S,34354,137416008,516,0,0
S,34355,137420008,516,0,0
S,34356,137424008,516,0,0
S,34357,137428008,516,0,0
S,34358,137432008,516,0,0
S,34359,137436008,516,0,0
S,34360,137440012,509,0,0
S,34361,137444008,494,0,0
S,34362,137448008,479,0,0
S,34363,137452008,479,0,0
S,34364,137456008,494,0,0
S,34365,137460008,509,0,0
S,34366,137464008,516,0,0
S,34367,137468008,516,0,0
S,34368,137472008,601,0,0
S,34369,137476008,686,0,0
S,34370,137480012,770,0,0
S,34371,137484008,686,0,0
S,34372,137488012,600,0,0
S,34373,137492008,516,0,0
S,34374,137496008,516,0,0
S,34375,137500008,501,0,0
S,34376,137504008,485,0,0
S,34377,137508008,469,0,0
S,34378,137512012,453,0,0
S,34379,137516008,469,0,0
S,34380,137520008,485,0,0
S,34381,137524008,501,0,0
S,34382,137528008,517,0,0
S,34383,137532008,517,0,0
S,34384,137536008,517,0,0
S,34385,137540008,517,0,0
S,34386,137544008,517,0,0
S,34387,137548008,517,0,0
S,34388,137552008,517,0,0
S,34389,137556008,517,0,0
S,34390,137560008,517,0,0
S,34391,137564008,517,0,0
S,34392,137568008,520,0,0
S,34393,137572008,526,0,0
S,34394,137576008,531,0,0
S,34395,137580008,536,0,0
S,34396,137584008,541,0,0
S,34397,137588008,547,0,0
S,34398,137592008,552,0,0
S,34399,137596008,557,0,0
S,34400,137600012,563,0,0
S,34401,137604008,569,0,0
S,34402,137608008,574,0,0
S,34403,137612008,579,0,0
S,34404,137616012,584,0,0
S,34405,137620008,589,0,0
S,34406,137624008,595,0,0
S,34407,137628008,600,0,0
S,34408,137632008,600,0,0
S,34409,137636008,595,0,0
S,34410,137640012,589,0,0
S,34411,137644008,584,0,0
S,34412,137648008,579,0,0
S,34413,137652008,574,0,0
S,34414,137656008,569,0,0
S,34415,137660008,563,0,0
S,34416,137664008,558,0,0
S,34417,137668008,553,0,0
S,34418,137672008,548,0,0
S,34419,137676008,542,0,0
S,34420,137680008,537,0,0
S,34421,137684008,532,0,0
S,34422,137688008,527,0,0
S,34423,137692012,521,0,0
S,34424,137696008,518,0,0
S,34425,137700008,519,0,0
S,34426,137704008,519,0,0
S,34427,137708008,519,0,0
S,34428,137712008,519,0,0
S,34429,137716008,519,0,0
S,34430,137720008,519,0,0
S,34431,137724008,519,0,0
S,34432,137728008,519,0,0
S,34433,137732008,519,0,0
S,34434,137736008,519,0,0
S,34435,137740008,519,0,0
S,34436,137744008,519,0,0
S,34437,137748008,519,0,0
S,34438,137752008,519,0,0
S,34439,137756008,519,0,0
S,34440,137760012,519,0,0
S,34441,137764008,519,0,0
S,34442,137768008,519,0,0
S,34443,137772008,519,0,0
S,34444,137776008,519,0,0
S,34445,137780008,519,0,0
S,34446,137784012,519,0,0
S,34447,137788008,519,0,0
S,34448,137792012,519,0,0
S,34449,137796012,519,0,0
S,34450,137800008,520,0,0
S,34451,137804008,520,0,0
S,34452,137808008,520,0,0
S,34453,137812008,520,0,0
S,34454,137816008,520,0,0
S,34455,137820008,520,0,0
S,34456,137824008,523,0,0
S,34457,137828008,527,0,0
S,34458,137832008,531,0,0
S,34459,137836008,534,0,0
S,34460,137840008,538,0,0
S,34461,137844008,542,0,0
S,34462,137848008,546,0,0
S,34463,137852008,546,0,0
S,34464,137856008,542,0,0
S,34465,137860012,538,0,0
S,34466,137864008,534,0,0
S,34467,137868008,531,0,0
S,34468,137872008,527,0,0
S,34469,137876008,523,0,0
S,34470,137880008,520,0,0
S,34471,137884012,520,0,0
S,34472,137888008,520,0,0
S,34473,137892008,520,0,0
S,34474,137896012,520,0,0
S,34475,137900008,521,0,0
S,34476,137904012,521,0,0
S,34477,137908008,521,0,0
S,34478,137912008,521,0,0
S,34479,137916012,521,0,0
S,34480,137920008,514,0,0
S,34481,137924008,499,0,0
S,34482,137928012,484,0,0
S,34483,137932008,484,0,0
S,34484,137936008,499,0,0
S,34485,137940008,514,0,0
S,34486,137944008,521,0,0
S,34487,137948008,521,0,0
S,34488,137952008,606,0,0
S,34489,137956008,691,0,0
S,34490,137960012,775,0,0
S,34491,137964008,691,0,0
S,34492,137968008,606,0,0
S,34493,137972008,521,0,0
S,34494,137976012,521,0,0
S,34495,137980012,505,0,0
S,34496,137984008,489,0,0
S,34497,137988008,473,0,0
S,34498,137992008,456,0,0
S,34499,137996008,473,0,0
S,34500,138000008,490,0,0
S,34501,138004008,506,0,0
S,34502,138008008,522,0,0
S,34503,138012008,522,0,0
S,34504,138016008,522,0,0
S,34505,138020012,522,0,0
S,34506,138024008,522,0,0
S,34507,138028008,522,0,0
S,34508,138032008,522,0,0
S,34509,138036008,522,0,0
S,34510,138040008,522,0,0
S,34511,138044012,522,0,0
S,34512,138048008,525,0,0
S,34513,138052008,531,0,0
S,34514,138056012,536,0,0
S,34515,138060008,541,0,0
S,34516,138064008,546,0,0
S,34517,138068008,552,0,0
S,34518,138072008,557,0,0
S,34519,138076008,562,0,0
S,34520,138080008,567,0,0
S,34521,138084008,573,0,0
S,34522,138088008,578,0,0
S,34523,138092008,583,0,0
S,34524,138096008,588,0,0
S,34525,138100008,592,0,0
S,34526,138104008,598,0,0
S,34527,138108008,603,0,0
S,34528,138112008,603,0,0
S,34529,138116008,598,0,0
S,34530,138120008,592,0,0
S,34531,138124008,587,0,0
S,34532,138128008,582,0,0
S,34533,138132008,577,0,0
S,34534,138136008,572,0,0
S,34535,138140008,566,0,0
S,34536,138144008,561,0,0
S,34537,138148008,556,0,0
S,34538,138152008,551,0,0
S,34539,138156008,545,0,0
S,34540,138160008,540,0,0
S,34541,138164008,535,0,0
S,34542,138168008,530,0,0
S,34543,138172008,524,0,0
S,34544,138176008,521,0,0
S,34545,138180008,521,0,0
S,34546,138184012,521,0,0
S,34547,138188008,521,0,0
S,34548,138192012,521,0,0
S,34549,138196012,521,0,0
S,34550,138200008,520,0,0
S,34551,138204008,520,0,0
S,34552,138208008,520,0,0
S,34553,138212012,520,0,0
S,34554,138216008,520,0,0
S,34555,138220012,520,0,0
S,34556,138224008,520,0,0
S,34557,138228008,520,0,0
S,34558,138232008,520,0,0
S,34559,138236008,520,0,0
S,34560,138240008,520,0,0
S,34561,138244008,520,0,0
S,34562,138248008,520,0,0
S,34563,138252008,520,0,0
S,34564,138256008,520,0,0
S,34565,138260008,520,0,0
S,34566,138264008,520,0,0
S,34567,138268008,520,0,0
S,34568,138272008,520,0,0
S,34569,138276008,520,0,0
S,34570,138280008,520,0,0
S,34571,138284008,520,0,0
S,34572,138288008,520,0,0
S,34573,138292008,520,0,0
S,34574,138296008,520,0,0
S,34575,138300008,519,0,0
S,34576,138304008,522,0,0
S,34577,138308008,526,0,0
S,34578,138312012,530,0,0
S,34579,138316012,533,0,0
S,34580,138320008,537,0,0
S,34581,138324008,541,0,0
S,34582,138328012,545,0,0
S,34583,138332008,545,0,0
S,34584,138336008,541,0,0
S,34585,138340008,537,0,0
S,34586,138344008,533,0,0
S,34587,138348008,530,0,0
S,34588,138352008,526,0,0
S,34589,138356008,522,0,0
S,34590,138360008,519,0,0
S,34591,138364008,519,0,0
S,34592,138368008,519,0,0
S,34593,138372008,519,0,0
S,34594,138376008,519,0,0
S,34595,138380008,519,0,0
S,34596,138384008,519,0,0
S,34597,138388008,519,0,0
S,34598,138392008,519,0,0
S,34599,138396012,519,0,0
S,34600,138400008,511,0,0
S,34601,138404008,496,0,0
S,34602,138408008,481,0,0
S,34603,138412012,481,0,0
S,34604,138416008,496,0,0
S,34605,138420008,511,0,0
S,34606,138424008,518,0,0
S,34607,138428008,518,0,0
S,34608,138432008,603,0,0
S,34609,138436008,688,0,0
S,34610,138440008,773,0,0
S,34611,138444008,688,0,0
S,34612,138448008,603,0,0
S,34613,138452008,518,0,0
S,34614,138456008,518,0,0
S,34615,138460008,502,0,0
S,34616,138464008,486,0,0
S,34617,138468008,470,0,0
S,34618,138472008,453,0,0
S,34619,138476008,470,0,0
S,34620,138480012,486,0,0
S,34621,138484012,502,0,0
S,34622,138488008,518,0,0
S,34623,138492008,518,0,0
S,34624,138496008,518,0,0
S,34625,138500008,517,0,0
S,34626,138504012,517,0,0
S,34627,138508008,517,0,0
S,34628,138512008,517,0,0
S,34629,138516008,517,0,0
S,34630,138520008,517,0,0
S,34631,138524008,517,0,0
S,34632,138528012,520,0,0
S,34633,138532008,526,0,0
S,34634,138536008,531,0,0
S,34635,138540008,536,0,0
S,34636,138544008,541,0,0
S,34637,138548012,547,0,0
S,34638,138552008,552,0,0
S,34639,138556012,557,0,0
S,34640,138560012,562,0,0
S,34641,138564008,568,0,0
S,34642,138568008,573,0,0
S,34643,138572008,578,0,0
S,34644,138576008,583,0,0
S,34645,138580008,588,0,0
S,34646,138584012,594,0,0
S,34647,138588012,599,0,0
S,34648,138592012,599,0,0
S,34649,138596008,594,0,0
S,34650,138600008,587,0,0
S,34651,138604008,582,0,0
S,34652,138608008,577,0,0
S,34653,138612012,572,0,0
S,34654,138616008,567,0,0
S,34655,138620008,561,0,0
S,34656,138624008,556,0,0
S,34657,138628008,551,0,0
S,34658,138632008,546,0,0
S,34659,138636008,540,0,0
S,34660,138640008,535,0,0
S,34661,138644008,530,0,0
S,34662,138648008,525,0,0
S,34663,138652012,519,0,0
S,34664,138656008,516,0,0
S,34665,138660008,516,0,0
S,34666,138664012,516,0,0
S,34667,138668008,516,0,0
S,34668,138672008,516,0,0
S,34669,138676008,516,0,0
S,34670,138680008,516,0,0
S,34671,138684008,516,0,0
S,34672,138688008,516,0,0
S,34673,138692008,516,0,0
S,34674,138696008,516,0,0
S,34675,138700008,515,0,0
S,34676,138704008,515,0,0
S,34677,138708008,515,0,0
S,34678,138712008,515,0,0
S,34679,138716008,515,0,0
S,34680,138720008,515,0,0
S,34681,138724008,515,0,0
S,34682,138728008,515,0,0
S,34683,138732008,515,0,0
S,34684,138736012,515,0,0
S,34685,138740008,515,0,0
S,34686,138744008,515,0,0
S,34687,138748008,515,0,0
S,34688,138752008,515,0,0
S,34689,138756008,515,0,0
S,34690,138760008,515,0,0
S,34691,138764008,515,0,0
S,34692,138768008,515,0,0
S,34693,138772008,515,0,0
S,34694,138776008,515,0,0
S,34695,138780008,515,0,0
S,34696,138784012,518,0,0
S,34697,138788012,522,0,0
S,34698,138792008,526,0,0
S,34699,138796008,529,0,0
S,34700,138800012,532,0,0
S,34701,138804008,536,0,0
S,34702,138808008,540,0,0
S,34703,138812008,540,0,0
S,34704,138816008,536,0,0
S,34705,138820008,532,0,0
S,34706,138824008,528,0,0
S,34707,138828008,525,0,0
S,34708,138832008,521,0,0
S,34709,138836008,517,0,0
S,34710,138840012,514,0,0
S,34711,138844008,514,0,0
S,34712,138848008,514,0,0
S,34713,138852008,514,0,0
S,34714,138856008,514,0,0
S,34715,138860012,514,0,0
S,34716,138864008,514,0,0
S,34717,138868008,514,0,0
S,34718,138872008,514,0,0
S,34719,138876008,514,0,0
S,34720,138880008,507,0,0
S,34721,138884008,492,0,0
S,34722,138888008,477,0,0
S,34723,138892012,477,0,0
S,34724,138896008,492,0,0
S,34725,138900012,506,0,0
S,34726,138904008,513,0,0
S,34727,138908008,513,0,0
S,34728,138912008,598,0,0
S,34729,138916008,683,0,0
S,34730,138920008,768,0,0
S,34731,138924012,682,0,0
S,34732,138928008,598,0,0
S,34733,138932008,513,0,0
S,34734,138936008,513,0,0
S,34735,138940012,497,0,0
S,34736,138944008,481,0,0
S,34737,138948008,465,0,0
S,34738,138952008,448,0,0
S,34739,138956008,465,0,0
S,34740,138960008,481,0,0
S,34741,138964008,497,0,0
S,34742,138968008,513,0,0
S,34743,138972008,513,0,0
S,34744,138976008,513,0,0
S,34745,138980008,513,0,0
S,34746,138984008,513,0,0
S,34747,138988008,513,0,0
S,34748,138992008,513,0,0
S,34749,138996008,513,0,0
S,34750,139000008,512,0,0
S,34751,139004008,512,0,0
S,34752,139008008,515,0,0
S,34753,139012008,521,0,0
S,34754,139016008,526,0,0
S,34755,139020008,531,0,0
S,34756,139024008,536,0,0
S,34757,139028012,542,0,0
S,34758,139032012,547,0,0
S,34759,139036012,552,0,0
S,34760,139040008,557,0,0
S,34761,139044012,563,0,0
S,34762,139048012,568,0,0
S,34763,139052008,573,0,0
S,34764,139056008,578,0,0
S,34765,139060008,583,0,0
S,34766,139064008,589,0,0
S,34767,139068008,594,0,0
S,34768,139072008,594,0,0
S,34769,139076008,589,0,0
S,34770,139080008,583,0,0
S,34771,139084008,578,0,0
S,34772,139088008,573,0,0
S,34773,139092008,568,0,0
S,34774,139096012,562,0,0
S,34775,139100008,556,0,0
S,34776,139104008,551,0,0
S,34777,139108008,546,0,0
S,34778,139112008,541,0,0
S,34779,139116008,535,0,0
S,34780,139120008,530,0,0
S,34781,139124008,525,0,0
S,34782,139128008,520,0,0
S,34783,139132008,514,0,0
S,34784,139136012,511,0,0
S,34785,139140008,511,0,0
S,34786,139144008,511,0,0
S,34787,139148008,511,0,0
S,34788,139152008,511,0,0
S,34789,139156008,511,0,0
S,34790,139160008,511,0,0
S,34791,139164008,511,0,0
S,34792,139168008,511,0,0
S,34793,139172008,511,0,0
S,34794,139176008,511,0,0
S,34795,139180008,511,0,0
S,34796,139184008,511,0,0
S,34797,139188008,511,0,0
S,34798,139192012,511,0,0
S,34799,139196008,511,0,0
S,34800,139200008,510,0,0
S,34801,139204008,510,0,0
S,34802,139208008,510,0,0
S,34803,139212008,510,0,0
S,34804,139216008,510,0,0
S,34805,139220008,510,0,0
S,34806,139224008,510,0,0
S,34807,139228008,510,0,0
S,34808,139232008,510,0,0
S,34809,139236008,510,0,0
S,34810,139240008,510,0,0
S,34811,139244008,510,0,0
S,34812,139248012,510,0,0
S,34813,139252008,510,0,0
S,34814,139256008,510,0,0
S,34815,139260008,510,0,0
S,34816,139264008,513,0,0
S,34817,139268008,517,0,0
S,34818,139272008,521,0,0
S,34819,139276008,524,0,0
S,34820,139280008,528,0,0
S,34821,139284008,532,0,0
S,34822,139288008,536,0,0
S,34823,139292008,536,0,0
S,34824,139296008,532,0,0
S,34825,139300008,527,0,0
S,34826,139304008,523,0,0
S,34827,139308012,520,0,0
S,34828,139312008,516,0,0
S,34829,139316008,512,0,0
S,34830,139320008,509,0,0
S,34831,139324008,509,0,0
S,34832,139328008,509,0,0
S,34833,139332008,509,0,0
S,34834,139336008,509,0,0
S,34835,139340008,509,0,0
S,34836,139344012,509,0,0
S,34837,139348008,509,0,0
S,34838,139352008,509,0,0
S,34839,139356008,509,0,0
S,34840,139360008,502,0,0
S,34841,139364008,487,0,0
S,34842,139368012,472,0,0
S,34843,139372008,472,0,0
S,34844,139376008,487,0,0
S,34845,139380008,502,0,0
S,34846,139384008,509,0,0
S,34847,139388008,509,0,0
S,34848,139392008,594,0,0
S,34849,139396012,679,0,0
S,34850,139400008,763,0,0
S,34851,139404008,678,0,0
S,34852,139408008,593,0,0
S,34853,139412008,508,0,0
S,34854,139416008,508,0,0
S,34855,139420008,492,0,0
S,34856,139424008,476,0,0
S,34857,139428008,460,0,0
S,34858,139432008,443,0,0
S,34859,139436008,460,0,0
S,34860,139440008,476,0,0
S,34861,139444008,492,0,0
S,34862,139448008,508,0,0
S,34863,139452008,508,0,0
S,34864,139456008,508,0,0
S,34865,139460008,508,0,0
S,34866,139464008,508,0,0
S,34867,139468008,508,0,0
S,34868,139472008,508,0,0
S,34869,139476008,508,0,0
S,34870,139480012,508,0,0
S,34871,139484008,508,0,0
S,34872,139488008,511,0,0
S,34873,139492008,517,0,0
S,34874,139496008,522,0,0
S,34875,139500008,526,0,0
S,34876,139504008,531,0,0
S,34877,139508008,537,0,0
S,34878,139512008,542,0,0
S,34879,139516008,547,0,0
S,34880,139520008,552,0,0
S,34881,139524008,558,0,0
S,34882,139528008,563,0,0
S,34883,139532008,568,0,0
S,34884,139536008,573,0,0
S,34885,139540012,578,0,0
S,34886,139544012,584,0,0
S,34887,139548008,589,0,0
S,34888,139552008,589,0,0
S,34889,139556008,584,0,0
S,34890,139560008,578,0,0
S,34891,139564008,573,0,0
S,34892,139568008,568,0,0
S,34893,139572008,563,0,0
S,34894,139576008,558,0,0
S,34895,139580008,552,0,0
S,34896,139584008,547,0,0
S,34897,139588008,542,0,0
S,34898,139592012,537,0,0
S,34899,139596008,531,0,0
S,34900,139600008,525,0,0
S,34901,139604008,520,0,0
S,34902,139608008,515,0,0
S,34903,139612008,509,0,0
S,34904,139616012,506,0,0
S,34905,139620008,506,0,0
S,34906,139624008,506,0,0
S,34907,139628008,506,0,0
S,34908,139632008,506,0,0
S,34909,139636008,506,0,0
S,34910,139640008,506,0,0
S,34911,139644008,506,0,0
S,34912,139648008,506,0,0
S,34913,139652008,506,0,0
S,34914,139656008,506,0,0
S,34915,139660008,506,0,0
S,34916,139664008,506,0,0
S,34917,139668008,506,0,0
S,34918,139672008,506,0,0
S,34919,139676008,506,0,0
S,34920,139680008,506,0,0
S,34921,139684008,506,0,0
S,34922,139688008,506,0,0
S,34923,139692008,506,0,0
S,34924,139696008,506,0,0
S,34925,139700008,505,0,0
S,34926,139704008,505,0,0
S,34927,139708008,505,0,0
S,34928,139712008,505,0,0
S,34929,139716008,505,0,0
S,34930,139720012,505,0,0
S,34931,139724008,505,0,0
S,34932,139728008,505,0,0
S,34933,139732008,505,0,0
S,34934,139736012,505,0,0
S,34935,139740008,505,0,0
S,34936,139744012,508,0,0
S,34937,139748008,512,0,0
S,34938,139752008,516,0,0
S,34939,139756012,519,0,0
S,34940,139760008,523,0,0
S,34941,139764008,527,0,0
S,34942,139768008,531,0,0
S,34943,139772012,531,0,0
S,34944,139776008,527,0,0
S,34945,139780008,523,0,0
S,34946,139784008,519,0,0
S,34947,139788008,516,0,0
S,34948,139792008,512,0,0
S,34949,139796008,508,0,0
S,34950,139800008,504,0,0
S,34951,139804008,504,0,0
S,34952,139808008,504,0,0
S,34953,139812008,504,0,0
S,34954,139816008,504,0,0
S,34955,139820008,504,0,0
S,34956,139824008,504,0,0
S,34957,139828008,504,0,0
S,34958,139832012,504,0,0
S,34959,139836008,504,0,0
S,34960,139840012,497,0,0
S,34961,139844008,482,0,0
S,34962,139848008,467,0,0
S,34963,139852008,467,0,0
S,34964,139856008,482,0,0
S,34965,139860008,497,0,0
S,34966,139864008,504,0,0
S,34967,139868008,504,0,0
S,34968,139872008,589,0,0
S,34969,139876008,674,0,0
S,34970,139880008,759,0,0
S,34971,139884008,674,0,0
S,34972,139888008,589,0,0
S,34973,139892008,504,0,0
S,34974,139896008,504,0,0
S,34975,139900012,487,0,0
S,34976,139904008,471,0,0
S,34977,139908008,455,0,0
S,34978,139912008,438,0,0
S,34979,139916012,455,0,0
S,34980,139920012,471,0,0
S,34981,139924008,487,0,0
S,34982,139928012,503,0,0
S,34983,139932012,503,0,0
S,34984,139936012,503,0,0
S,34985,139940012,503,0,0
S,34986,139944012,503,0,0
S,34987,139948008,503,0,0
S,34988,139952008,503,0,0
S,34989,139956008,503,0,0
S,34990,139960008,503,0,0
S,34991,139964012,503,0,0
S,34992,139968008,506,0,0
S,34993,139972012,512,0,0
S,34994,139976008,517,0,0
S,34995,139980008,522,0,0
S,34996,139984008,527,0,0
S,34997,139988008,533,0,0
S,34998,139992008,538,0,0
S,34999,139996008,543,0,0
S,35000,140000008,547,0,0
S,35001,140004008,553,0,0
S,35002,140008012,558,0,0
S,35003,140012008,563,0,0
S,35004,140016008,568,0,0
S,35005,140020008,573,0,0
S,35006,140024008,579,0,0
S,35007,140028008,584,0,0
S,35008,140032008,584,0,0
S,35009,140036008,579,0,0
S,35010,140040008,573,0,0
S,35011,140044008,568,0,0
S,35012,140048008,563,0,0
S,35013,140052008,558,0,0
S,35014,140056008,553,0,0
S,35015,140060012,547,0,0
S,35016,140064008,542,0,0
S,35017,140068008,537,0,0
S,35018,140072008,532,0,0
S,35019,140076008,526,0,0
S,35020,140080008,521,0,0
S,35021,140084008,516,0,0
S,35022,140088008,511,0,0
S,35023,140092008,505,0,0
S,35024,140096008,502,0,0
S,35025,140100008,503,0,0
S,35026,140104008,503,0,0
S,35027,140108008,503,0,0
S,35028,140112008,503,0,0
S,35029,140116008,503,0,0
S,35030,140120008,503,0,0
S,35031,140124008,503,0,0
S,35032,140128008,503,0,0
S,35033,140132008,503,0,0
S,35034,140136012,503,0,0
S,35035,140140008,503,0,0
S,35036,140144008,503,0,0
S,35037,140148008,503,0,0
S,35038,140152008,503,0,0
S,35039,140156008,503,0,0
S,35040,140160008,503,0,0
S,35041,140164008,503,0,0
S,35042,140168008,503,0,0
S,35043,140172008,503,0,0
S,35044,140176008,503,0,0
S,35045,140180008,503,0,0
S,35046,140184008,503,0,0
S,35047,140188008,503,0,0
S,35048,140192008,503,0,0
S,35049,140196008,503,0,0
S,35050,140200008,504,0,0
S,35051,140204008,504,0,0
S,35052,140208012,504,0,0
S,35053,140212008,504,0,0
S,35054,140216008,504,0,0
S,35055,140220008,504,0,0
S,35056,140224012,507,0,0
S,35057,140228008,511,0,0
S,35058,140232008,515,0,0
S,35059,140236008,518,0,0
S,35060,140240008,522,0,0
S,35061,140244008,526,0,0
S,35062,140248012,530,0,0
S,35063,140252008,530,0,0
S,35064,140256008,526,0,0
S,35065,140260008,522,0,0
S,35066,140264008,518,0,0
S,35067,140268008,515,0,0
S,35068,140272008,511,0,0
S,35069,140276008,507,0,0
S,35070,140280008,504,0,0
S,35071,140284008,504,0,0
S,35072,140288008,504,0,0
S,35073,140292008,504,0,0
S,35074,140296012,504,0,0
S,35075,140300008,505,0,0
S,35076,140304008,505,0,0
S,35077,140308008,505,0,0
S,35078,140312008,505,0,0
S,35079,140316008,505,0,0
S,35080,140320008,498,0,0
S,35081,140324008,483,0,0
S,35082,140328012,468,0,0
S,35083,140332012,468,0,0
S,35084,140336012,483,0,0
S,35085,140340012,498,0,0
S,35086,140344012,505,0,0
S,35087,140348008,505,0,0
S,35088,140352008,590,0,0
S,35089,140356008,675,0,0
S,35090,140360008,760,0,0
S,35091,140364008,675,0,0
S,35092,140368012,589,0,0
S,35093,140372008,505,0,0
S,35094,140376008,505,0,0
S,35095,140380008,489,0,0
S,35096,140384008,473,0,0
S,35097,140388008,457,0,0
S,35098,140392012,441,0,0
S,35099,140396008,457,0,0
S,35100,140400012,474,0,0
S,35101,140404008,490,0,0
S,35102,140408008,506,0,0
S,35103,140412008,506,0,0
S,35104,140416008,506,0,0
S,35105,140420008,506,0,0
S,35106,140424012,506,0,0
S,35107,140428008,506,0,0
S,35108,140432012,506,0,0
S,35109,140436008,506,0,0
S,35110,140440008,506,0,0
S,35111,140444008,506,0,0
S,35112,140448008,509,0,0
S,35113,140452008,515,0,0
S,35114,140456008,520,0,0
S,35115,140460008,525,0,0
S,35116,140464012,530,0,0
S,35117,140468008,536,0,0
S,35118,140472008,541,0,0
S,35119,140476012,546,0,0
S,35120,140480008,551,0,0
S,35121,140484008,557,0,0
S,35122,140488008,562,0,0
S,35123,140492008,567,0,0
S,35124,140496008,572,0,0
S,35125,140500008,578,0,0
S,35126,140504008,584,0,0
S,35127,140508012,589,0,0
S,35128,140512008,589,0,0
S,35129,140516008,584,0,0
S,35130,140520008,578,0,0
S,35131,140524008,573,0,0
S,35132,140528008,568,0,0
S,35133,140532008,563,0,0
S,35134,140536008,558,0,0
S,35135,140540008,552,0,0
S,35136,140544008,547,0,0
S,35137,140548008,542,0,0
S,35138,140552008,537,0,0
S,35139,140556008,531,0,0
S,35140,140560008,526,0,0
S,35141,140564008,521,0,0
S,35142,140568008,516,0,0
S,35143,140572008,510,0,0
S,35144,140576008,507,0,0
S,35145,140580008,507,0,0
S,35146,140584008,507,0,0
S,35147,140588008,507,0,0
S,35148,140592008,507,0,0
S,35149,140596008,507,0,0
S,35150,140600008,508,0,0
S,35151,140604008,508,0,0
S,35152,140608008,508,0,0
S,35153,140612012,508,0,0
S,35154,140616008,508,0,0
S,35155,140620008,508,0,0
S,35156,140624008,508,0,0
S,35157,140628008,508,0,0
S,35158,140632008,508,0,0
S,35159,140636008,508,0,0
S,35160,140640008,508,0,0
S,35161,140644008,508,0,0
S,35162,140648008,508,0,0
S,35163,140652008,508,0,0
S,35164,140656012,508,0,0
S,35165,140660012,508,0,0
S,35166,140664008,508,0,0
S,35167,140668008,508,0,0
S,35168,140672008,508,0,0
S,35169,140676008,508,0,0
S,35170,140680008,508,0,0
S,35171,140684008,508,0,0
S,35172,140688008,508,0,0
S,35173,140692008,508,0,0
S,35174,140696008,508,0,0
S,35175,140700008,509,0,0
S,35176,140704008,512,0,0
S,35177,140708008,516,0,0
S,35178,140712008,520,0,0
S,35179,140716008,523,0,0
S,35180,140720008,527,0,0
S,35181,140724008,531,0,0
S,35182,140728008,535,0,0
S,35183,140732012,535,0,0
S,35184,140736008,531,0,0
S,35185,140740008,527,0,0
S,35186,140744008,523,0,0
S,35187,140748008,520,0,0
S,35188,140752008,516,0,0
S,35189,140756008,512,0,0
S,35190,140760008,509,0,0
S,35191,140764008,509,0,0
S,35192,140768008,509,0,0
S,35193,140772008,509,0,0
S,35194,140776008,509,0,0
S,35195,140780012,509,0,0
S,35196,140784012,509,0,0
S,35197,140788008,509,0,0
S,35198,140792008,509,0,0
S,35199,140796008,509,0,0
S,35200,140800012,503,0,0
S,35201,140804008,488,0,0
S,35202,140808008,473,0,0
S,35203,140812008,473,0,0
S,35204,140816008,488,0,0
S,35205,140820008,503,0,0
S,35206,140824008,510,0,0
S,35207,140828008,510,0,0
S,35208,140832008,595,0,0
S,35209,140836008,680,0,0
S,35210,140840008,765,0,0
S,35211,140844012,679,0,0
S,35212,140848008,595,0,0
S,35213,140852008,510,0,0
S,35214,140856008,510,0,0
S,35215,140860012,494,0,0
S,35216,140864008,478,0,0
S,35217,140868008,462,0,0
S,35218,140872012,446,0,0
S,35219,140876008,462,0,0
S,35220,140880008,478,0,0
S,35221,140884008,494,0,0
S,35222,140888008,510,0,0
S,35223,140892012,510,0,0
S,35224,140896008,510,0,0
S,35225,140900008,511,0,0
S,35226,140904008,511,0,0
S,35227,140908008,511,0,0
S,35228,140912008,511,0,0
S,35229,140916008,511,0,0
S,35230,140920008,511,0,0
S,35231,140924008,511,0,0
S,35232,140928008,514,0,0
S,35233,140932008,520,0,0
S,35234,140936008,525,0,0
S,35235,140940008,530,0,0
S,35236,140944008,535,0,0
S,35237,140948008,541,0,0
S,35238,140952008,546,0,0
S,35239,140956008,551,0,0
S,35240,140960008,556,0,0
S,35241,140964008,562,0,0
S,35242,140968008,567,0,0
S,35243,140972008,572,0,0
S,35244,140976008,577,0,0
S,35245,140980008,582,0,0
S,35246,140984008,588,0,0
S,35247,140988008,593,0,0
S,35248,140992008,593,0,0
S,35249,140996008,588,0,0
S,35250,141000008,583,0,0
S,35251,141004008,578,0,0
S,35252,141008008,573,0,0
S,35253,141012008,568,0,0
S,35254,141016008,563,0,0
S,35255,141020008,557,0,0
S,35256,141024008,552,0,0
S,35257,141028008,547,0,0
S,35258,141032012,542,0,0
S,35259,141036012,536,0,0
S,35260,141040008,531,0,0
S,35261,141044012,526,0,0
S,35262,141048012,521,0,0
S,35263,141052008,515,0,0
S,35264,141056008,512,0,0
S,35265,141060012,512,0,0
S,35266,141064008,512,0,0
S,35267,141068008,512,0,0
S,35268,141072008,512,0,0
S,35269,141076008,512,0,0
S,35270,141080008,512,0,0
S,35271,141084008,512,0,0
S,35272,141088008,512,0,0
S,35273,141092008,512,0,0
S,35274,141096012,512,0,0
S,35275,141100012,513,0,0
S,35276,141104008,513,0,0
S,35277,141108008,513,0,0
S,35278,141112012,513,0,0
S,35279,141116008,513,0,0
S,35280,141120008,513,0,0
S,35281,141124008,513,0,0
S,35282,141128008,513,0,0
S,35283,141132008,513,0,0
S,35284,141136008,513,0,0
S,35285,141140008,513,0,0
S,35286,141144008,513,0,0
S,35287,141148008,513,0,0
S,35288,141152008,513,0,0
S,35289,141156008,513,0,0
S,35290,141160008,513,0,0
S,35291,141164008,513,0,0
S,35292,141168008,513,0,0
S,35293,141172008,513,0,0
S,35294,141176008,513,0,0
S,35295,141180012,513,0,0
S,35296,141184008,516,0,0
S,35297,141188012,520,0,0
S,35298,141192008,524,0,0
S,35299,141196008,527,0,0
S,35300,141200012,532,0,0
S,35301,141204008,536,0,0
S,35302,141208008,540,0,0
S,35303,141212008,540,0,0
S,35304,141216008,536,0,0
S,35305,141220008,532,0,0
S,35306,141224008,528,0,0
S,35307,141228008,525,0,0
S,35308,141232008,521,0,0
S,35309,141236008,517,0,0
S,35310,141240008,514,0,0
S,35311,141244008,514,0,0
S,35312,141248008,514,0,0
S,35313,141252008,514,0,0
S,35314,141256008,514,0,0
S,35315,141260008,514,0,0
S,35316,141264008,514,0,0
S,35317,141268008,514,0,0
S,35318,141272008,514,0,0
S,35319,141276008,514,0,0
S,35320,141280008,507,0,0
S,35321,141284008,492,0,0
S,35322,141288008,477,0,0
S,35323,141292008,477,0,0
S,35324,141296008,492,0,0
S,35325,141300008,508,0,0
S,35326,141304008,515,0,0
S,35327,141308008,515,0,0
S,35328,141312008,600,0,0
S,35329,141316008,685,0,0
S,35330,141320008,770,0,0
S,35331,141324008,685,0,0
S,35332,141328008,600,0,0
S,35333,141332008,515,0,0
S,35334,141336012,515,0,0
S,35335,141340012,499,0,0
S,35336,141344008,483,0,0
S,35337,141348008,467,0,0
S,35338,141352008,450,0,0
S,35339,141356008,467,0,0
S,35340,141360008,483,0,0
S,35341,141364008,499,0,0
S,35342,141368008,515,0,0
S,35343,141372008,515,0,0
S,35344,141376012,515,0,0
S,35345,141380008,515,0,0
S,35346,141384008,515,0,0
S,35347,141388008,515,0,0
S,35348,141392008,515,0,0
S,35349,141396008,515,0,0
S,35350,141400012,516,0,0
S,35351,141404008,516,0,0
S,35352,141408008,519,0,0
S,35353,141412008,525,0,0
S,35354,141416012,530,0,0
S,35355,141420008,535,0,0
S,35356,141424008,540,0,0
S,35357,141428012,546,0,0
S,35358,141432008,551,0,0
S,35359,141436012,556,0,0
S,35360,141440008,561,0,0
S,35361,141444008,567,0,0
S,35362,141448008,572,0,0
S,35363,141452008,577,0,0
S,35364,141456008,582,0,0
S,35365,141460008,587,0,0
S,35366,141464008,593,0,0
S,35367,141468008,598,0,0
S,35368,141472012,598,0,0
S,35369,141476012,593,0,0
S,35370,141480008,587,0,0
S,35371,141484008,582,0,0
S,35372,141488008,577,0,0
S,35373,141492008,572,0,0
S,35374,141496012,566,0,0
S,35375,141500008,562,0,0
S,35376,141504008,557,0,0
S,35377,141508012,552,0,0
S,35378,141512008,547,0,0
S,35379,141516008,541,0,0
S,35380,141520008,536,0,0
S,35381,141524008,531,0,0
S,35382,141528008,526,0,0
S,35383,141532008,520,0,0
S,35384,141536008,517,0,0
S,35385,141540008,517,0,0
S,35386,141544008,517,0,0
S,35387,141548012,517,0,0
S,35388,141552008,517,0,0
S,35389,141556012,517,0,0
S,35390,141560008,517,0,0
S,35391,141564012,517,0,0
S,35392,141568008,517,0,0
S,35393,141572008,517,0,0
S,35394,141576008,517,0,0
S,35395,141580008,517,0,0
S,35396,141584008,517,0,0
S,35397,141588008,517,0,0
S,35398,141592008,517,0,0
S,35399,141596008,517,0,0
S,35400,141600008,518,0,0
S,35401,141604008,518,0,0
S,35402,141608008,518,0,0
S,35403,141612008,518,0,0
S,35404,141616008,518,0,0
S,35405,141620008,518,0,0
S,35406,141624012,518,0,0
S,35407,141628008,518,0,0
S,35408,141632012,518,0,0
S,35409,141636008,518,0,0
S,35410,141640008,518,0,0
S,35411,141644008,518,0,0
S,35412,141648008,518,0,0
S,35413,141652012,518,0,0
S,35414,141656008,518,0,0
S,35415,141660012,518,0,0
S,35416,141664008,521,0,0
S,35417,141668012,525,0,0
S,35418,141672008,529,0,0
S,35419,141676012,532,0,0
S,35420,141680008,536,0,0
S,35421,141684012,540,0,0
S,35422,141688008,544,0,0
S,35423,141692008,544,0,0
S,35424,141696012,540,0,0
S,35425,141700012,537,0,0
S,35426,141704008,533,0,0
S,35427,141708008,530,0,0
S,35428,141712008,526,0,0
S,35429,141716008,522,0,0
S,35430,141720008,519,0,0
S,35431,141724008,519,0,0
S,35432,141728008,519,0,0
S,35433,141732008,519,0,0
S,35434,141736008,519,0,0
S,35435,141740008,519,0,0
S,35436,141744008,519,0,0
S,35437,141748008,519,0,0
S,35438,141752012,519,0,0
S,35439,141756008,519,0,0
S,35440,141760008,512,0,0
S,35441,141764008,497,0,0
S,35442,141768012,482,0,0
S,35443,141772008,482,0,0
S,35444,141776008,497,0,0
S,35445,141780008,512,0,0
S,35446,141784008,519,0,0
S,35447,141788008,519,0,0
S,35448,141792008,604,0,0
S,35449,141796008,689,0,0
S,35450,141800008,775,0,0
S,35451,141804012,689,0,0
S,35452,141808008,605,0,0
S,35453,141812008,520,0,0
S,35454,141816008,520,0,0
S,35455,141820008,504,0,0
S,35456,141824008,488,0,0
S,35457,141828008,472,0,0
S,35458,141832008,455,0,0
S,35459,141836008,472,0,0
S,35460,141840008,488,0,0
S,35461,141844012,504,0,0
S,35462,141848008,520,0,0
S,35463,141852012,520,0,0
S,35464,141856008,520,0,0
S,35465,141860008,520,0,0
S,35466,141864008,520,0,0
S,35467,141868008,520,0,0
S,35468,141872008,520,0,0
S,35469,141876008,520,0,0
S,35470,141880008,520,0,0
S,35471,141884008,520,0,0
S,35472,141888008,523,0,0
S,35473,141892008,529,0,0
S,35474,141896008,534,0,0
S,35475,141900008,540,0,0
S,35476,141904008,545,0,0
S,35477,141908008,551,0,0
S,35478,141912012,556,0,0
S,35479,141916008,561,0,0
S,35480,141920008,566,0,0
S,35481,141924008,572,0,0
S,35482,141928008,577,0,0
S,35483,141932008,582,0,0
S,35484,141936008,587,0,0
S,35485,141940008,592,0,0
S,35486,141944008,598,0,0
S,35487,141948008,603,0,0
S,35488,141952008,603,0,0
S,35489,141956008,598,0,0
S,35490,141960008,592,0,0
S,35491,141964008,587,0,0
S,35492,141968008,582,0,0
S,35493,141972008,577,0,0
S,35494,141976008,572,0,0
S,35495,141980008,566,0,0
S,35496,141984008,561,0,0
S,35497,141988008,556,0,0
S,35498,141992008,551,0,0
S,35499,141996008,545,0,0
S,35500,142000008,541,0,0
S,35501,142004008,536,0,0
S,35502,142008008,531,0,0
S,35503,142012012,525,0,0
S,35504,142016012,522,0,0
S,35505,142020008,522,0,0
S,35506,142024008,522,0,0
S,35507,142028008,522,0,0
S,35508,142032012,522,0,0
S,35509,142036012,522,0,0
S,35510,142040008,522,0,0
S,35511,142044012,522,0,0
S,35512,142048008,522,0,0
S,35513,142052008,522,0,0
S,35514,142056008,522,0,0
S,35515,142060008,522,0,0
S,35516,142064008,522,0,0
S,35517,142068008,522,0,0
S,35518,142072008,522,0,0
S,35519,142076012,522,0,0
S,35520,142080008,522,0,0
S,35521,142084008,522,0,0
S,35522,142088008,522,0,0
S,35523,142092008,522,0,0
S,35524,142096012,522,0,0
S,35525,142100012,521,0,0
S,35526,142104008,521,0,0
S,35527,142108008,521,0,0
S,35528,142112012,521,0,0
S,35529,142116008,521,0,0
S,35530,142120008,521,0,0
S,35531,142124008,521,0,0
S,35532,142128008,521,0,0
S,35533,142132012,521,0,0
S,35534,142136008,521,0,0
S,35535,142140008,521,0,0
S,35536,142144008,524,0,0
S,35537,142148008,528,0,0
S,35538,142152012,532,0,0
S,35539,142156008,535,0,0
S,35540,142160012,539,0,0
S,35541,142164008,543,0,0
S,35542,142168008,547,0,0
S,35543,142172008,547,0,0
S,35544,142176008,543,0,0
S,35545,142180008,539,0,0
S,35546,142184012,535,0,0
S,35547,142188008,532,0,0
S,35548,142192008,528,0,0
S,35549,142196008,524,0,0
S,35550,142200008,520,0,0
S,35551,142204008,520,0,0
S,35552,142208008,520,0,0
S,35553,142212008,520,0,0
S,35554,142216008,520,0,0
S,35555,142220008,520,0,0
S,35556,142224008,520,0,0
S,35557,142228008,520,0,0
S,35558,142232012,520,0,0
S,35559,142236008,520,0,0
S,35560,142240008,513,0,0
S,35561,142244008,498,0,0
S,35562,142248012,483,0,0
S,35563,142252008,483,0,0
S,35564,142256008,498,0,0
S,35565,142260008,513,0,0
S,35566,142264008,520,0,0
S,35567,142268012,520,0,0
S,35568,142272008,605,0,0
S,35569,142276008,690,0,0
S,35570,142280008,775,0,0
S,35571,142284008,690,0,0
S,35572,142288008,605,0,0
S,35573,142292008,520,0,0
S,35574,142296008,520,0,0
S,35575,142300008,503,0,0
S,35576,142304008,487,0,0
S,35577,142308008,471,0,0
S,35578,142312008,454,0,0
S,35579,142316008,471,0,0
S,35580,142320008,487,0,0
S,35581,142324012,503,0,0
S,35582,142328008,519,0,0
S,35583,142332008,519,0,0
S,35584,142336008,519,0,0
S,35585,142340008,519,0,0
S,35586,142344008,519,0,0
S,35587,142348008,519,0,0
S,35588,142352012,519,0,0
S,35589,142356012,519,0,0
S,35590,142360008,519,0,0
S,35591,142364008,519,0,0
S,35592,142368008,522,0,0
S,35593,142372008,528,0,0
S,35594,142376012,533,0,0
S,35595,142380008,538,0,0
S,35596,142384008,543,0,0
S,35597,142388008,549,0,0
S,35598,142392008,554,0,0
S,35599,142396008,559,0,0
S,35600,142400008,563,0,0
S,35601,142404008,569,0,0
S,35602,142408008,574,0,0
S,35603,142412008,579,0,0
S,35604,142416008,584,0,0
S,35605,142420008,589,0,0
S,35606,142424008,595,0,0
S,35607,142428008,600,0,0
S,35608,142432008,600,0,0
S,35609,142436008,595,0,0
S,35610,142440008,589,0,0
S,35611,142444008,584,0,0
S,35612,142448008,579,0,0
S,35613,142452008,574,0,0
S,35614,142456008,569,0,0
S,35615,142460008,563,0,0
S,35616,142464008,558,0,0
S,35617,142468008,553,0,0
S,35618,142472008,548,0,0
S,35619,142476008,542,0,0
S,35620,142480008,537,0,0
S,35621,142484008,532,0,0
S,35622,142488008,527,0,0
S,35623,142492008,521,0,0
S,35624,142496008,518,0,0
S,35625,142500008,517,0,0
S,35626,142504008,517,0,0
S,35627,142508008,517,0,0
S,35628,142512008,517,0,0
S,35629,142516008,517,0,0
S,35630,142520008,517,0,0
S,35631,142524008,517,0,0
S,35632,142528008,517,0,0
S,35633,142532008,517,0,0
S,35634,142536008,517,0,0
S,35635,142540008,517,0,0
S,35636,142544008,517,0,0
S,35637,142548008,517,0,0
S,35638,142552012,517,0,0
S,35639,142556012,517,0,0
S,35640,142560008,517,0,0
S,35641,142564008,517,0,0
S,35642,142568008,517,0,0
S,35643,142572008,517,0,0
S,35644,142576008,517,0,0
S,35645,142580008,517,0,0
S,35646,142584008,517,0,0
S,35647,142588008,517,0,0
S,35648,142592008,517,0,0
S,35649,142596008,517,0,0
S,35650,142600008,516,0,0
S,35651,142604008,516,0,0
S,35652,142608008,516,0,0
S,35653,142612012,516,0,0
S,35654,142616008,516,0,0
S,35655,142620008,516,0,0
S,35656,142624008,519,0,0
S,35657,142628008,523,0,0
S,35658,142632008,527,0,0
S,35659,142636008,530,0,0
S,35660,142640008,534,0,0
S,35661,142644008,538,0,0
S,35662,142648008,542,0,0
S,35663,142652008,542,0,0
S,35664,142656008,538,0,0
S,35665,142660012,534,0,0
S,35666,142664008,530,0,0
S,35667,142668008,527,0,0
S,35668,142672012,523,0,0
S,35669,142676008,519,0,0
S,35670,142680008,516,0,0
S,35671,142684008,516,0,0
S,35672,142688012,516,0,0
S,35673,142692008,516,0,0
S,35674,142696008,516,0,0
S,35675,142700008,515,0,0
S,35676,142704008,515,0,0
S,35677,142708008,515,0,0
S,35678,142712008,515,0,0
S,35679,142716008,515,0,0
S,35680,142720012,508,0,0
S,35681,142724008,493,0,0
S,35682,142728008,478,0,0
S,35683,142732008,478,0,0
S,35684,142736008,493,0,0
S,35685,142740008,508,0,0
S,35686,142744008,515,0,0
S,35687,142748012,515,0,0
S,35688,142752008,600,0,0
S,35689,142756008,685,0,0
S,35690,142760008,770,0,0
S,35691,142764008,685,0,0
S,35692,142768008,600,0,0
S,35693,142772008,515,0,0
S,35694,142776008,515,0,0
S,35695,142780008,499,0,0
S,35696,142784012,483,0,0
S,35697,142788008,467,0,0
S,35698,142792008,450,0,0
S,35699,142796008,467,0,0
S,35700,142800008,482,0,0
S,35701,142804008,498,0,0
S,35702,142808008,514,0,0
S,35703,142812008,514,0,0
S,35704,142816012,514,0,0
S,35705,142820008,514,0,0
S,35706,142824008,514,0,0
S,35707,142828008,514,0,0
S,35708,142832008,514,0,0
S,35709,142836008,514,0,0
S,35710,142840008,514,0,0
S,35711,142844008,514,0,0
S,35712,142848008,517,0,0
S,35713,142852008,523,0,0
S,35714,142856012,528,0,0
S,35715,142860008,533,0,0
S,35716,142864008,538,0,0
S,35717,142868008,544,0,0
S,35718,142872008,549,0,0
S,35719,142876012,554,0,0
S,35720,142880008,559,0,0
S,35721,142884008,565,0,0
S,35722,142888012,570,0,0
S,35723,142892008,575,0,0
S,35724,142896012,580,0,0
S,35725,142900012,584,0,0
S,35726,142904008,590,0,0
S,35727,142908008,595,0,0
S,35728,142912008,595,0,0
S,35729,142916008,590,0,0
S,35730,142920008,584,0,0
S,35731,142924008,579,0,0
S,35732,142928012,574,0,0
S,35733,142932008,569,0,0
S,35734,142936008,564,0,0
S,35735,142940008,558,0,0
S,35736,142944008,553,0,0
S,35737,142948008,548,0,0
S,35738,142952008,543,0,0
S,35739,142956008,537,0,0
S,35740,142960008,532,0,0
S,35741,142964008,527,0,0
S,35742,142968008,522,0,0
S,35743,142972008,516,0,0
S,35744,142976012,513,0,0
S,35745,142980008,513,0,0
S,35746,142984008,513,0,0
S,35747,142988012,513,0,0
S,35748,142992008,513,0,0
S,35749,142996008,513,0,0
S,35750,143000008,512,0,0
S,35751,143004012,512,0,0
S,35752,143008008,512,0,0
S,35753,143012008,512,0,0
S,35754,143016008,512,0,0
S,35755,143020008,512,0,0
S,35756,143024008,512,0,0
S,35757,143028008,512,0,0
S,35758,143032008,512,0,0
S,35759,143036008,512,0,0
S,35760,143040008,512,0,0
S,35761,143044008,512,0,0
S,35762,143048008,512,0,0
S,35763,143052008,512,0,0
S,35764,143056008,512,0,0
S,35765,143060008,512,0,0
S,35766,143064008,512,0,0
S,35767,143068008,512,0,0
S,35768,143072012,512,0,0
S,35769,143076008,512,0,0
S,35770,143080008,512,0,0
S,35771,143084008,512,0,0
S,35772,143088008,512,0,0
S,35773,143092008,512,0,0
S,35774,143096012,512,0,0
S,35775,143100008,511,0,0
S,35776,143104012,514,0,0
S,35777,143108008,518,0,0
S,35778,143112008,522,0,0
S,35779,143116008,525,0,0
S,35780,143120008,529,0,0
S,35781,143124008,533,0,0
S,35782,143128008,537,0,0
S,35783,143132008,537,0,0
S,35784,143136008,533,0,0
S,35785,143140008,529,0,0
S,35786,143144008,525,0,0
S,35787,143148008,522,0,0
S,35788,143152008,518,0,0
S,35789,143156008,514,0,0
S,35790,143160008,511,0,0
S,35791,143164012,511,0,0
S,35792,143168008,511,0,0
S,35793,143172008,511,0,0
S,35794,143176012,511,0,0
S,35795,143180008,511,0,0
S,35796,143184008,511,0,0
S,35797,143188008,511,0,0
S,35798,143192008,511,0,0
S,35799,143196008,511,0,0
S,35800,143200008,503,0,0
S,35801,143204008,488,0,0
S,35802,143208008,473,0,0
S,35803,143212008,473,0,0
S,35804,143216008,488,0,0
S,35805,143220008,503,0,0
S,35806,143224008,510,0,0
S,35807,143228008,510,0,0
S,35808,143232008,595,0,0
S,35809,143236008,680,0,0
S,35810,143240008,765,0,0
S,35811,143244008,680,0,0
S,35812,143248012,594,0,0
S,35813,143252008,510,0,0
S,35814,143256012,510,0,0
S,35815,143260008,494,0,0
S,35816,143264008,478,0,0
S,35817,143268008,462,0,0
S,35818,143272008,445,0,0
S,35819,143276008,462,0,0
S,35820,143280008,478,0,0
S,35821,143284008,494,0,0
S,35822,143288008,510,0,0
S,35823,143292012,510,0,0
S,35824,143296008,510,0,0
S,35825,143300008,509,0,0
S,35826,143304008,509,0,0
S,35827,143308008,509,0,0
S,35828,143312008,509,0,0
S,35829,143316008,509,0,0
S,35830,143320008,509,0,0
S,35831,143324008,509,0,0
S,35832,143328008,512,0,0
S,35833,143332008,518,0,0
S,35834,143336008,523,0,0
S,35835,143340008,528,0,0
S,35836,143344008,533,0,0
S,35837,143348008,539,0,0
S,35838,143352012,544,0,0
S,35839,143356012,549,0,0
S,35840,143360008,554,0,0
S,35841,143364008,560,0,0
S,35842,143368008,565,0,0
S,35843,143372008,570,0,0
S,35844,143376008,575,0,0
S,35845,143380008,580,0,0
S,35846,143384008,586,0,0
S,35847,143388008,591,0,0
S,35848,143392008,591,0,0
S,35849,143396008,586,0,0
S,35850,143400008,579,0,0
S,35851,143404012,574,0,0
S,35852,143408008,569,0,0
S,35853,143412008,564,0,0
S,35854,143416008,559,0,0
S,35855,143420008,553,0,0
S,35856,143424008,548,0,0
S,35857,143428008,543,0,0
S,35858,143432008,538,0,0
S,35859,143436012,532,0,0
S,35860,143440008,527,0,0
S,35861,143444008,522,0,0
S,35862,143448008,517,0,0
S,35863,143452008,511,0,0
S,35864,143456008,508,0,0
S,35865,143460008,508,0,0
S,35866,143464008,508,0,0
S,35867,143468008,508,0,0
S,35868,143472012,508,0,0
S,35869,143476008,508,0,0
S,35870,143480008,508,0,0
S,35871,143484008,508,0,0
S,35872,143488008,508,0,0
S,35873,143492008,508,0,0
S,35874,143496008,508,0,0
S,35875,143500012,507,0,0
S,35876,143504008,507,0,0
S,35877,143508012,507,0,0
S,35878,143512012,507,0,0
S,35879,143516008,507,0,0
S,35880,143520008,507,0,0
S,35881,143524008,507,0,0
S,35882,143528008,507,0,0
S,35883,143532008,507,0,0
S,35884,143536008,507,0,0
S,35885,143540008,507,0,0
S,35886,143544008,507,0,0
S,35887,143548008,507,0,0
S,35888,143552008,507,0,0
S,35889,143556008,507,0,0
S,35890,143560012,507,0,0
S,35891,143564008,507,0,0
S,35892,143568012,507,0,0
S,35893,143572008,507,0,0
S,35894,143576008,507,0,0
S,35895,143580008,507,0,0
S,35896,143584008,510,0,0
S,35897,143588008,514,0,0
S,35898,143592008,518,0,0
S,35899,143596008,521,0,0
S,35900,143600012,524,0,0
S,35901,143604008,528,0,0
S,35902,143608008,532,0,0
S,35903,143612008,532,0,0
S,35904,143616008,528,0,0
S,35905,143620008,524,0,0
S,35906,143624008,520,0,0
S,35907,143628008,517,0,0
S,35908,143632008,513,0,0
S,35909,143636008,509,0,0
S,35910,143640008,506,0,0
S,35911,143644008,506,0,0
S,35912,143648008,506,0,0
S,35913,143652008,506,0,0
S,35914,143656008,506,0,0
S,35915,143660008,506,0,0
S,35916,143664012,506,0,0
S,35917,143668008,506,0,0
S,35918,143672008,506,0,0
S,35919,143676008,506,0,0
S,35920,143680008,499,0,0
S,35921,143684012,484,0,0
S,35922,143688008,469,0,0
S,35923,143692012,469,0,0
S,35924,143696008,484,0,0
S,35925,143700008,498,0,0
S,35926,143704008,505,0,0
S,35927,143708008,505,0,0
S,35928,143712008,590,0,0
S,35929,143716008,675,0,0
S,35930,143720012,759,0,0
S,35931,143724008,675,0,0
S,35932,143728008,590,0,0
S,35933,143732008,505,0,0
S,35934,143736008,505,0,0
S,35935,143740008,489,0,0
S,35936,143744008,473,0,0
S,35937,143748008,457,0,0
S,35938,143752008,440,0,0
S,35939,143756008,457,0,0
S,35940,143760012,473,0,0
S,35941,143764008,489,0,0
S,35942,143768008,505,0,0
S,35943,143772008,505,0,0
S,35944,143776008,505,0,0
S,35945,143780008,505,0,0
S,35946,143784008,505,0,0
S,35947,143788008,505,0,0
S,35948,143792008,505,0,0
S,35949,143796008,505,0,0
S,35950,143800012,504,0,0
S,35951,143804008,504,0,0
S,35952,143808008,507,0,0
S,35953,143812008,513,0,0
S,35954,143816008,518,0,0
S,35955,143820008,523,0,0
S,35956,143824008,528,0,0
S,35957,143828008,534,0,0
S,35958,143832008,539,0,0
S,35959,143836008,544,0,0
S,35960,143840008,549,0,0
S,35961,143844008,555,0,0
S,35962,143848008,560,0,0
S,35963,143852008,565,0,0
S,35964,143856008,570,0,0
S,35965,143860008,575,0,0
S,35966,143864008,581,0,0
S,35967,143868012,586,0,0
S,35968,143872008,586,0,0
S,35969,143876008,581,0,0
S,35970,143880008,575,0,0
S,35971,143884008,570,0,0
S,35972,143888008,565,0,0
S,35973,143892008,560,0,0
S,35974,143896008,555,0,0
S,35975,143900008,548,0,0
S,35976,143904008,543,0,0
S,35977,143908008,538,0,0
S,35978,143912008,533,0,0
S,35979,143916012,527,0,0
S,35980,143920008,522,0,0
S,35981,143924008,517,0,0
S,35982,143928008,512,0,0
S,35983,143932008,506,0,0
S,35984,143936008,503,0,0
S,35985,143940012,503,0,0
S,35986,143944012,503,0,0
S,35987,143948008,503,0,0
S,35988,143952008,503,0,0
S,35989,143956008,503,0,0
S,35990,143960008,503,0,0
S,35991,143964008,503,0,0
S,35992,143968008,503,0,0
S,35993,143972008,503,0,0
S,35994,143976008,503,0,0
S,35995,143980008,503,0,0
S,35996,143984008,503,0,0
S,35997,143988012,503,0,0
S,35998,143992008,503,0,0
S,35999,143996008,503,0,0
S,36000,144000008,502,0,0
S,36001,144004008,502,0,0
S,36002,144008008,502,0,0
S,36003,144012008,502,0,0
S,36004,144016008,502,0,0
S,36005,144020008,502,0,0
S,36006,144024008,502,0,0
S,36007,144028008,502,0,0
S,36008,144032012,502,0,0
S,36009,144036012,502,0,0
S,36010,144040008,502,0,0
S,36011,144044008,502,0,0
S,36012,144048008,502,0,0
S,36013,144052008,502,0,0
S,36014,144056008,502,0,0
S,36015,144060008,502,0,0
S,36016,144064008,505,0,0
S,36017,144068008,509,0,0
S,36018,144072012,513,0,0
S,36019,144076008,516,0,0
S,36020,144080012,520,0,0
S,36021,144084008,524,0,0
S,36022,144088008,528,0,0
S,36023,144092008,528,0,0
S,36024,144096008,524,0,0
S,36025,144100008,521,0,0
S,36026,144104008,517,0,0
S,36027,144108008,514,0,0
S,36028,144112012,510,0,0
S,36029,144116008,506,0,0
S,36030,144120008,503,0,0
S,36031,144124008,503,0,0
S,36032,144128008,503,0,0
S,36033,144132008,503,0,0
S,36034,144136008,503,0,0
S,36035,144140008,503,0,0
S,36036,144144012,503,0,0
S,36037,144148008,503,0,0
S,36038,144152008,503,0,0
S,36039,144156008,503,0,0
S,36040,144160008,496,0,0
S,36041,144164008,481,0,0
S,36042,144168008,466,0,0
S,36043,144172008,466,0,0
S,36044,144176008,481,0,0
S,36045,144180008,496,0,0
S,36046,144184008,503,0,0
S,36047,144188008,503,0,0
S,36048,144192008,588,0,0
S,36049,144196008,673,0,0
S,36050,144200012,758,0,0
S,36051,144204008,674,0,0
S,36052,144208008,589,0,0
S,36053,144212008,504,0,0
S,36054,144216008,504,0,0
S,36055,144220008,488,0,0
S,36056,144224012,472,0,0
S,36057,144228008,456,0,0
S,36058,144232008,439,0,0
S,36059,144236008,456,0,0
S,36060,144240012,472,0,0
S,36061,144244008,488,0,0
S,36062,144248008,504,0,0
S,36063,144252008,504,0,0
S,36064,144256008,504,0,0
S,36065,144260008,504,0,0
S,36066,144264008,504,0,0
S,36067,144268008,504,0,0
S,36068,144272008,504,0,0
S,36069,144276008,504,0,0
S,36070,144280008,504,0,0
S,36071,144284008,504,0,0
S,36072,144288008,507,0,0
S,36073,144292008,513,0,0
S,36074,144296012,518,0,0
S,36075,144300008,524,0,0
S,36076,144304008,529,0,0
S,36077,144308008,535,0,0
S,36078,144312012,540,0,0
S,36079,144316008,545,0,0
S,36080,144320008,550,0,0
S,36081,144324008,556,0,0
S,36082,144328012,561,0,0
S,36083,144332008,566,0,0
S,36084,144336012,571,0,0
S,36085,144340008,576,0,0
S,36086,144344008,582,0,0
S,36087,144348008,587,0,0
S,36088,144352008,587,0,0
S,36089,144356008,582,0,0
S,36090,144360008,576,0,0
S,36091,144364008,571,0,0
S,36092,144368012,566,0,0
S,36093,144372008,561,0,0
S,36094,144376008,556,0,0
S,36095,144380012,550,0,0
S,36096,144384008,545,0,0
S,36097,144388008,540,0,0
S,36098,144392012,535,0,0
S,36099,144396008,529,0,0
S,36100,144400008,525,0,0
S,36101,144404008,520,0,0
S,36102,144408008,515,0,0
S,36103,144412008,509,0,0
S,36104,144416012,506,0,0
S,36105,144420008,506,0,0
S,36106,144424008,506,0,0
S,36107,144428008,506,0,0
S,36108,144432008,506,0,0
S,36109,144436008,506,0,0
S,36110,144440008,506,0,0
S,36111,144444008,506,0,0
S,36112,144448008,506,0,0
S,36113,144452008,506,0,0
S,36114,144456008,506,0,0
S,36115,144460008,506,0,0
S,36116,144464008,506,0,0
S,36117,144468008,506,0,0
S,36118,144472008,506,0,0
S,36119,144476008,506,0,0
S,36120,144480008,506,0,0
S,36121,144484008,506,0,0
S,36122,144488008,506,0,0
S,36123,144492008,506,0,0
S,36124,144496008,506,0,0
S,36125,144500008,507,0,0
S,36126,144504008,507,0,0
S,36127,144508008,507,0,0
S,36128,144512008,507,0,0
S,36129,144516008,507,0,0
S,36130,144520008,507,0,0
S,36131,144524008,507,0,0
S,36132,144528008,507,0,0
S,36133,144532008,507,0,0
S,36134,144536008,507,0,0
S,36135,144540008,507,0,0
S,36136,144544012,510,0,0
S,36137,144548008,514,0,0
S,36138,144552008,518,0,0
S,36139,144556008,521,0,0
S,36140,144560008,525,0,0
S,36141,144564008,529,0,0
S,36142,144568008,533,0,0
S,36143,144572012,533,0,0
S,36144,144576008,529,0,0
S,36145,144580008,525,0,0
S,36146,144584012,521,0,0
S,36147,144588008,518,0,0
S,36148,144592012,514,0,0
S,36149,144596008,510,0,0
S,36150,144600008,508,0,0
S,36151,144604008,508,0,0
S,36152,144608008,508,0,0
S,36153,144612008,508,0,0
S,36154,144616008,508,0,0
S,36155,144620008,508,0,0
S,36156,144624008,508,0,0
S,36157,144628012,508,0,0
S,36158,144632008,508,0,0
S,36159,144636008,508,0,0
S,36160,144640012,501,0,0
S,36161,144644012,486,0,0
S,36162,144648008,471,0,0
S,36163,144652008,471,0,0
S,36164,144656012,486,0,0
S,36165,144660008,501,0,0
S,36166,144664012,508,0,0
S,36167,144668008,508,0,0
S,36168,144672008,593,0,0
S,36169,144676012,678,0,0
S,36170,144680008,763,0,0
S,36171,144684012,677,0,0
S,36172,144688008,593,0,0
S,36173,144692008,508,0,0
S,36174,144696008,508,0,0
S,36175,144700008,493,0,0
S,36176,144704008,477,0,0
S,36177,144708008,461,0,0
S,36178,144712012,445,0,0
S,36179,144716008,461,0,0
S,36180,144720008,477,0,0
S,36181,144724008,493,0,0
S,36182,144728008,509,0,0
S,36183,144732008,509,0,0
S,36184,144736008,509,0,0
S,36185,144740008,509,0,0
S,36186,144744012,509,0,0
S,36187,144748012,509,0,0
S,36188,144752008,509,0,0
S,36189,144756008,509,0,0
S,36190,144760008,509,0,0
S,36191,144764008,509,0,0
S,36192,144768008,512,0,0
S,36193,144772008,518,0,0
S,36194,144776008,523,0,0
S,36195,144780012,528,0,0
S,36196,144784008,533,0,0
S,36197,144788008,539,0,0
S,36198,144792008,544,0,0
S,36199,144796008,549,0,0
S,36200,144800008,555,0,0
S,36201,144804012,561,0,0
S,36202,144808012,566,0,0
S,36203,144812008,571,0,0
S,36204,144816008,576,0,0
S,36205,144820008,581,0,0
S,36206,144824008,587,0,0
S,36207,144828012,592,0,0
S,36208,144832008,592,0,0
S,36209,144836008,587,0,0
S,36210,144840008,581,0,0
S,36211,144844008,576,0,0
S,36212,144848008,571,0,0
S,36213,144852008,566,0,0
S,36214,144856008,561,0,0
S,36215,144860008,555,0,0
S,36216,144864008,550,0,0
S,36217,144868008,545,0,0
S,36218,144872008,540,0,0
S,36219,144876008,534,0,0
S,36220,144880008,529,0,0
S,36221,144884008,524,0,0
S,36222,144888008,519,0,0
S,36223,144892008,513,0,0
S,36224,144896008,510,0,0
S,36225,144900008,511,0,0
S,36226,144904008,511,0,0
S,36227,144908008,511,0,0
S,36228,144912008,511,0,0
S,36229,144916008,511,0,0
S,36230,144920008,511,0,0
S,36231,144924008,511,0,0
S,36232,144928008,511,0,0
S,36233,144932008,511,0,0
S,36234,144936008,511,0,0
S,36235,144940008,511,0,0
S,36236,144944008,511,0,0
S,36237,144948012,511,0,0
S,36238,144952008,511,0,0
S,36239,144956008,511,0,0
S,36240,144960008,511,0,0
S,36241,144964012,511,0,0
S,36242,144968008,511,0,0
S,36243,144972008,511,0,0
S,36244,144976008,511,0,0
S,36245,144980008,511,0,0
S,36246,144984012,511,0,0
S,36247,144988008,511,0,0
S,36248,144992008,511,0,0
S,36249,144996008,511,0,0
S,36250,145000008,512,0,0
S,36251,145004008,512,0,0
S,36252,145008012,512,0,0
S,36253,145012008,512,0,0
S,36254,145016008,512,0,0
S,36255,145020008,512,0,0
S,36256,145024008,515,0,0
S,36257,145028008,519,0,0
S,36258,145032012,523,0,0
S,36259,145036008,526,0,0
S,36260,145040008,530,0,0
S,36261,145044008,534,0,0
S,36262,145048008,538,0,0
S,36263,145052012,538,0,0
S,36264,145056008,534,0,0
S,36265,145060008,530,0,0
S,36266,145064008,526,0,0
S,36267,145068008,523,0,0
S,36268,145072008,519,0,0
S,36269,145076008,515,0,0
S,36270,145080008,512,0,0
S,36271,145084012,512,0,0
S,36272,145088008,512,0,0
S,36273,145092008,512,0,0
S,36274,145096008,512,0,0
S,36275,145100008,513,0,0
S,36276,145104008,513,0,0
S,36277,145108008,513,0,0
S,36278,145112008,513,0,0
S,36279,145116008,513,0,0
S,36280,145120008,506,0,0
S,36281,145124008,491,0,0
S,36282,145128008,476,0,0
S,36283,145132008,476,0,0
S,36284,145136008,491,0,0
S,36285,145140012,506,0,0
S,36286,145144012,513,0,0
S,36287,145148008,513,0,0
S,36288,145152008,598,0,0
S,36289,145156008,683,0,0
S,36290,145160012,767,0,0
S,36291,145164008,683,0,0
S,36292,145168008,598,0,0
S,36293,145172012,513,0,0
S,36294,145176008,513,0,0
S,36295,145180012,497,0,0
S,36296,145184008,481,0,0
S,36297,145188008,465,0,0
S,36298,145192008,448,0,0
S,36299,145196008,465,0,0
S,36300,145200008,482,0,0
S,36301,145204008,498,0,0
S,36302,145208008,514,0,0
S,36303,145212008,514,0,0
S,36304,145216008,514,0,0
S,36305,145220008,514,0,0
S,36306,145224012,514,0,0
S,36307,145228008,514,0,0
S,36308,145232008,514,0,0
S,36309,145236008,514,0,0
S,36310,145240008,514,0,0
S,36311,145244008,514,0,0
S,36312,145248008,517,0,0
S,36313,145252008,523,0,0
S,36314,145256012,528,0,0
S,36315,145260008,533,0,0
S,36316,145264008,538,0,0
S,36317,145268012,544,0,0
S,36318,145272008,549,0,0
S,36319,145276012,554,0,0
S,36320,145280008,559,0,0
S,36321,145284008,565,0,0
S,36322,145288008,570,0,0
S,36323,145292008,575,0,0
S,36324,145296008,580,0,0
S,36325,145300008,586,0,0
S,36326,145304008,592,0,0
S,36327,145308012,597,0,0
S,36328,145312008,597,0,0
S,36329,145316008,592,0,0
S,36330,145320008,586,0,0
S,36331,145324008,581,0,0
S,36332,145328008,576,0,0
S,36333,145332008,571,0,0
S,36334,145336008,566,0,0
S,36335,145340012,560,0,0
S,36336,145344008,555,0,0
S,36337,145348008,550,0,0
S,36338,145352008,545,0,0
S,36339,145356012,539,0,0
S,36340,145360008,534,0,0
S,36341,145364008,529,0,0
S,36342,145368008,524,0,0
S,36343,145372012,518,0,0
S,36344,145376008,515,0,0
S,36345,145380008,515,0,0
S,36346,145384008,515,0,0
S,36347,145388008,515,0,0
S,36348,145392012,515,0,0
S,36349,145396008,515,0,0
S,36350,145400008,516,0,0
S,36351,145404008,516,0,0
S,36352,145408008,516,0,0
S,36353,145412008,516,0,0
S,36354,145416008,516,0,0
S,36355,145420012,516,0,0
S,36356,145424008,516,0,0
S,36357,145428008,516,0,0
S,36358,145432008,516,0,0
S,36359,145436012,516,0,0
S,36360,145440008,516,0,0
S,36361,145444012,516,0,0
S,36362,145448008,516,0,0
S,36363,145452008,516,0,0
S,36364,145456008,516,0,0
S,36365,145460008,516,0,0
S,36366,145464008,516,0,0
S,36367,145468012,516,0,0
S,36368,145472008,516,0,0
S,36369,145476008,516,0,0
S,36370,145480008,516,0,0
S,36371,145484008,516,0,0
S,36372,145488008,516,0,0
S,36373,145492008,516,0,0
S,36374,145496008,516,0,0
S,36375,145500012,517,0,0
S,36376,145504008,520,0,0
S,36377,145508008,524,0,0
S,36378,145512008,528,0,0
S,36379,145516008,531,0,0
S,36380,145520008,535,0,0
S,36381,145524008,539,0,0
S,36382,145528008,543,0,0
S,36383,145532008,543,0,0
S,36384,145536008,539,0,0
S,36385,145540008,535,0,0
S,36386,145544008,531,0,0
S,36387,145548008,528,0,0
S,36388,145552008,524,0,0
S,36389,145556008,520,0,0
S,36390,145560008,517,0,0
S,36391,145564008,517,0,0
S,36392,145568008,517,0,0
S,36393,145572012,517,0,0
S,36394,145576008,517,0,0
S,36395,145580008,517,0,0
S,36396,145584008,517,0,0
S,36397,145588012,517,0,0
S,36398,145592008,517,0,0
S,36399,145596008,517,0,0
S,36400,145600008,511,0,0
S,36401,145604008,496,0,0
S,36402,145608008,481,0,0
S,36403,145612008,481,0,0
S,36404,145616008,496,0,0
S,36405,145620008,511,0,0
S,36406,145624012,518,0,0
S,36407,145628008,518,0,0
S,36408,145632008,603,0,0
S,36409,145636008,688,0,0
S,36410,145640008,773,0,0
S,36411,145644008,688,0,0
S,36412,145648012,602,0,0
S,36413,145652008,518,0,0
S,36414,145656008,518,0,0
S,36415,145660012,502,0,0
S,36416,145664008,486,0,0
S,36417,145668008,470,0,0
S,36418,145672008,453,0,0
S,36419,145676008,470,0,0
S,36420,145680008,486,0,0
S,36421,145684008,502,0,0
S,36422,145688008,518,0,0
S,36423,145692008,518,0,0
S,36424,145696008,518,0,0
S,36425,145700008,519,0,0
S,36426,145704008,519,0,0
S,36427,145708008,519,0,0
S,36428,145712008,519,0,0
S,36429,145716008,519,0,0
S,36430,145720008,519,0,0
S,36431,145724008,519,0,0
S,36432,145728008,522,0,0
S,36433,145732008,528,0,0
S,36434,145736008,533,0,0
S,36435,145740012,538,0,0
S,36436,145744008,543,0,0
S,36437,145748008,549,0,0
S,36438,145752008,554,0,0
S,36439,145756008,559,0,0
S,36440,145760008,564,0,0
S,36441,145764008,570,0,0
S,36442,145768012,575,0,0
S,36443,145772008,580,0,0
S,36444,145776008,585,0,0
S,36445,145780008,590,0,0
S,36446,145784008,596,0,0
S,36447,145788008,601,0,0
S,36448,145792008,601,0,0
S,36449,145796008,596,0,0
S,36450,145800008,591,0,0
S,36451,145804012,586,0,0
S,36452,145808008,581,0,0
S,36453,145812008,576,0,0
S,36454,145816008,571,0,0
S,36455,145820008,565,0,0
S,36456,145824008,560,0,0
S,36457,145828008,555,0,0
S,36458,145832008,550,0,0
S,36459,145836008,544,0,0
S,36460,145840008,539,0,0
S,36461,145844008,534,0,0
S,36462,145848012,529,0,0
S,36463,145852008,523,0,0
S,36464,145856008,520,0,0
S,36465,145860008,520,0,0
S,36466,145864008,520,0,0
S,36467,145868008,520,0,0
S,36468,145872012,520,0,0
S,36469,145876008,520,0,0
S,36470,145880008,520,0,0
S,36471,145884008,520,0,0
S,36472,145888008,520,0,0
S,36473,145892008,520,0,0
S,36474,145896008,520,0,0
S,36475,145900008,521,0,0
S,36476,145904008,521,0,0
S,36477,145908008,521,0,0
S,36478,145912012,521,0,0
S,36479,145916008,521,0,0
S,36480,145920008,521,0,0
S,36481,145924008,521,0,0
S,36482,145928008,521,0,0
S,36483,145932008,521,0,0
S,36484,145936008,521,0,0
S,36485,145940008,521,0,0
S,36486,145944012,521,0,0
S,36487,145948008,521,0,0
S,36488,145952008,521,0,0
S,36489,145956012,521,0,0
S,36490,145960008,521,0,0
S,36491,145964008,521,0,0
S,36492,145968008,521,0,0
S,36493,145972008,521,0,0
S,36494,145976008,521,0,0
S,36495,145980008,521,0,0
S,36496,145984008,524,0,0
S,36497,145988008,528,0,0
S,36498,145992012,532,0,0
S,36499,145996008,535,0,0
S,36500,146000012,540,0,0
S,36501,146004012,544,0,0
S,36502,146008008,548,0,0
S,36503,146012012,548,0,0
S,36504,146016008,544,0,0
S,36505,146020008,540,0,0
S,36506,146024008,536,0,0
S,36507,146028008,533,0,0
S,36508,146032008,529,0,0
S,36509,146036008,525,0,0
S,36510,146040008,522,0,0
S,36511,146044012,522,0,0
S,36512,146048008,522,0,0
S,36513,146052008,522,0,0
S,36514,146056012,522,0,0
S,36515,146060008,522,0,0
S,36516,146064008,522,0,0
S,36517,146068008,522,0,0
S,36518,146072008,522,0,0
S,36519,146076008,522,0,0
S,36520,146080008,515,0,0
S,36521,146084008,500,0,0
S,36522,146088008,485,0,0
S,36523,146092012,485,0,0
S,36524,146096008,500,0,0
S,36525,146100008,514,0,0
S,36526,146104012,521,0,0
S,36527,146108008,521,0,0
S,36528,146112008,606,0,0
S,36529,146116008,691,0,0
S,36530,146120008,776,0,0
S,36531,146124008,691,0,0
S,36532,146128008,606,0,0
S,36533,146132008,521,0,0
S,36534,146136008,521,0,0
S,36535,146140008,505,0,0
S,36536,146144008,489,0,0
S,36537,146148008,473,0,0
S,36538,146152012,457,0,0
S,36539,146156008,473,0,0
S,36540,146160008,489,0,0
S,36541,146164008,505,0,0
S,36542,146168008,521,0,0
S,36543,146172008,521,0,0
S,36544,146176008,521,0,0
S,36545,146180008,521,0,0
S,36546,146184008,521,0,0
S,36547,146188008,521,0,0
S,36548,146192008,521,0,0
S,36549,146196008,521,0,0
S,36550,146200008,520,0,0
S,36551,146204008,520,0,0
S,36552,146208008,523,0,0
S,36553,146212008,529,0,0
S,36554,146216008,534,0,0
S,36555,146220008,539,0,0
S,36556,146224008,544,0,0
S,36557,146228008,550,0,0
S,36558,146232008,555,0,0
S,36559,146236012,560,0,0
S,36560,146240012,565,0,0
S,36561,146244008,571,0,0
S,36562,146248008,576,0,0
S,36563,146252012,581,0,0
S,36564,146256008,586,0,0
S,36565,146260008,591,0,0
S,36566,146264008,597,0,0
S,36567,146268008,602,0,0
S,36568,146272008,602,0,0
S,36569,146276008,597,0,0
S,36570,146280008,591,0,0
S,36571,146284008,586,0,0
S,36572,146288008,581,0,0
S,36573,146292008,576,0,0
S,36574,146296008,571,0,0
S,36575,146300008,564,0,0
S,36576,146304008,559,0,0
S,36577,146308012,554,0,0
S,36578,146312008,549,0,0
S,36579,146316008,543,0,0
S,36580,146320008,538,0,0
S,36581,146324008,533,0,0
S,36582,146328008,528,0,0
S,36583,146332008,522,0,0
S,36584,146336008,519,0,0
S,36585,146340008,519,0,0
S,36586,146344008,519,0,0
S,36587,146348008,519,0,0
S,36588,146352008,519,0,0
S,36589,146356008,519,0,0
S,36590,146360008,519,0,0
S,36591,146364008,519,0,0
S,36592,146368008,519,0,0
S,36593,146372008,519,0,0
S,36594,146376008,519,0,0
S,36595,146380008,519,0,0
S,36596,146384008,519,0,0
S,36597,146388008,519,0,0
S,36598,146392008,519,0,0
S,36599,146396008,519,0,0
S,36600,146400008,518,0,0
S,36601,146404012,518,0,0
S,36602,146408008,518,0,0
S,36603,146412008,518,0,0
S,36604,146416008,518,0,0
S,36605,146420008,518,0,0
S,36606,146424012,518,0,0
S,36607,146428008,518,0,0
S,36608,146432008,518,0,0
S,36609,146436008,518,0,0
S,36610,146440008,518,0,0
S,36611,146444012,518,0,0
S,36612,146448008,518,0,0
S,36613,146452008,518,0,0
S,36614,146456012,518,0,0
S,36615,146460008,518,0,0
S,36616,146464008,521,0,0
S,36617,146468008,525,0,0
S,36618,146472008,529,0,0
S,36619,146476008,532,0,0
S,36620,146480012,536,0,0
S,36621,146484008,540,0,0
S,36622,146488008,544,0,0
S,36623,146492008,544,0,0
S,36624,146496008,540,0,0
S,36625,146500008,535,0,0
S,36626,146504008,531,0,0
S,36627,146508008,528,0,0
S,36628,146512008,524,0,0
S,36629,146516008,520,0,0
S,36630,146520008,517,0,0
S,36631,146524008,517,0,0
S,36632,146528008,517,0,0
S,36633,146532008,517,0,0
S,36634,146536008,517,0,0
S,36635,146540012,517,0,0
S,36636,146544008,517,0,0
S,36637,146548012,517,0,0
S,36638,146552008,517,0,0
S,36639,146556008,517,0,0
S,36640,146560008,510,0,0
S,36641,146564008,495,0,0
S,36642,146568008,480,0,0
S,36643,146572008,480,0,0
S,36644,146576008,495,0,0
S,36645,146580012,510,0,0
S,36646,146584008,517,0,0
S,36647,146588012,517,0,0
S,36648,146592008,602,0,0
S,36649,146596008,687,0,0
S,36650,146600008,771,0,0
S,36651,146604008,686,0,0
S,36652,146608008,601,0,0
S,36653,146612012,516,0,0
S,36654,146616008,516,0,0
S,36655,146620008,500,0,0
S,36656,146624008,484,0,0
S,36657,146628008,468,0,0
S,36658,146632012,452,0,0
S,36659,146636008,468,0,0
S,36660,146640008,484,0,0
S,36661,146644008,500,0,0
S,36662,146648008,516,0,0
S,36663,146652008,516,0,0
S,36664,146656008,516,0,0
S,36665,146660008,516,0,0
S,36666,146664008,516,0,0
S,36667,146668008,516,0,0
S,36668,146672012,516,0,0
S,36669,146676012,516,0,0
S,36670,146680008,516,0,0
S,36671,146684008,516,0,0
S,36672,146688008,519,0,0
S,36673,146692008,525,0,0
S,36674,146696008,530,0,0
S,36675,146700008,534,0,0
S,36676,146704008,539,0,0
S,36677,146708008,545,0,0
S,36678,146712008,550,0,0
S,36679,146716008,555,0,0
S,36680,146720008,560,0,0
S,36681,146724008,566,0,0
S,36682,146728008,571,0,0
S,36683,146732008,576,0,0
S,36684,146736008,581,0,0
S,36685,146740008,586,0,0
S,36686,146744008,592,0,0
S,36687,146748008,597,0,0
S,36688,146752012,597,0,0
S,36689,146756008,592,0,0
S,36690,146760012,586,0,0
S,36691,146764012,581,0,0
S,36692,146768008,576,0,0
S,36693,146772008,571,0,0
S,36694,146776008,566,0,0
S,36695,146780008,560,0,0
S,36696,146784008,555,0,0
S,36697,146788008,550,0,0
S,36698,146792008,545,0,0
S,36699,146796008,539,0,0
S,36700,146800008,533,0,0
S,36701,146804008,528,0,0
S,36702,146808008,523,0,0
S,36703,146812008,517,0,0
S,36704,146816012,514,0,0
S,36705,146820008,514,0,0
S,36706,146824008,514,0,0
S,36707,146828008,514,0,0
S,36708,146832008,514,0,0
S,36709,146836008,514,0,0
S,36710,146840012,514,0,0
S,36711,146844008,514,0,0
S,36712,146848008,514,0,0
S,36713,146852008,514,0,0
S,36714,146856008,514,0,0
S,36715,146860008,514,0,0
S,36716,146864008,514,0,0
S,36717,146868008,514,0,0
S,36718,146872008,514,0,0
S,36719,146876008,514,0,0
S,36720,146880008,514,0,0
S,36721,146884008,514,0,0
S,36722,146888008,514,0,0
S,36723,146892008,514,0,0
S,36724,146896008,514,0,0
S,36725,146900012,513,0,0
S,36726,146904008,513,0,0
S,36727,146908008,513,0,0
S,36728,146912008,513,0,0
S,36729,146916008,513,0,0
S,36730,146920012,513,0,0
S,36731,146924008,513,0,0
S,36732,146928012,513,0,0
S,36733,146932008,513,0,0
S,36734,146936008,513,0,0
S,36735,146940008,513,0,0
S,36736,146944008,516,0,0
S,36737,146948012,520,0,0
S,36738,146952008,524,0,0
S,36739,146956008,527,0,0
S,36740,146960008,531,0,0
S,36741,146964008,535,0,0
S,36742,146968012,539,0,0
S,36743,146972008,539,0,0
S,36744,146976008,535,0,0
S,36745,146980008,531,0,0
S,36746,146984012,527,0,0
S,36747,146988012,524,0,0
S,36748,146992008,520,0,0
S,36749,146996008,516,0,0
S,36750,147000008,512,0,0
S,36751,147004008,512,0,0
S,36752,147008008,512,0,0
S,36753,147012008,512,0,0
S,36754,147016012,512,0,0
S,36755,147020008,512,0,0
S,36756,147024008,512,0,0
S,36757,147028008,512,0,0
S,36758,147032012,512,0,0
S,36759,147036008,512,0,0
S,36760,147040008,505,0,0
S,36761,147044008,490,0,0
S,36762,147048008,475,0,0
S,36763,147052008,475,0,0
S,36764,147056008,490,0,0
S,36765,147060008,505,0,0
S,36766,147064008,512,0,0
S,36767,147068008,512,0,0
S,36768,147072008,597,0,0
S,36769,147076008,682,0,0
S,36770,147080012,766,0,0
S,36771,147084008,682,0,0
S,36772,147088008,597,0,0
S,36773,147092008,512,0,0
S,36774,147096008,512,0,0
S,36775,147100008,495,0,0
S,36776,147104008,479,0,0
S,36777,147108008,463,0,0
S,36778,147112008,446,0,0
S,36779,147116008,463,0,0
S,36780,147120008,479,0,0
S,36781,147124008,495,0,0
S,36782,147128008,511,0,0
S,36783,147132008,511,0,0
S,36784,147136008,511,0,0
S,36785,147140008,511,0,0
S,36786,147144008,511,0,0
S,36787,147148008,511,0,0
S,36788,147152008,511,0,0
S,36789,147156012,511,0,0
S,36790,147160008,511,0,0
S,36791,147164008,511,0,0
S,36792,147168008,514,0,0
S,36793,147172008,520,0,0
S,36794,147176008,525,0,0
S,36795,147180008,530,0,0
S,36796,147184008,535,0,0
S,36797,147188012,541,0,0
S,36798,147192008,546,0,0
S,36799,147196008,551,0,0
S,36800,147200012,555,0,0
S,36801,147204008,561,0,0
S,36802,147208012,566,0,0
S,36803,147212008,571,0,0
S,36804,147216008,576,0,0
S,36805,147220012,581,0,0
S,36806,147224008,587,0,0
S,36807,147228008,592,0,0
S,36808,147232008,592,0,0
S,36809,147236012,587,0,0
S,36810,147240008,581,0,0
S,36811,147244008,576,0,0
S,36812,147248008,571,0,0
S,36813,147252008,566,0,0
S,36814,147256008,561,0,0
S,36815,147260008,555,0,0
S,36816,147264008,550,0,0
S,36817,147268012,545,0,0
S,36818,147272008,540,0,0
S,36819,147276008,534,0,0
S,36820,147280008,529,0,0
S,36821,147284008,524,0,0
S,36822,147288008,519,0,0
S,36823,147292008,513,0,0
S,36824,147296008,510,0,0
S,36825,147300012,509,0,0
S,36826,147304008,509,0,0
S,36827,147308008,509,0,0
S,36828,147312008,509,0,0
S,36829,147316008,509,0,0
S,36830,147320008,509,0,0
S,36831,147324012,509,0,0
S,36832,147328008,509,0,0
S,36833,147332008,509,0,0
S,36834,147336008,509,0,0
S,36835,147340008,509,0,0
S,36836,147344008,509,0,0
S,36837,147348008,509,0,0
S,36838,147352008,509,0,0
S,36839,147356008,509,0,0
S,36840,147360008,509,0,0
S,36841,147364012,509,0,0
S,36842,147368008,509,0,0
S,36843,147372008,509,0,0
S,36844,147376012,509,0,0
S,36845,147380008,509,0,0
S,36846,147384008,509,0,0
S,36847,147388008,509,0,0
S,36848,147392008,509,0,0
S,36849,147396008,509,0,0
S,36850,147400012,508,0,0
S,36851,147404008,508,0,0
S,36852,147408008,508,0,0
S,36853,147412008,508,0,0
S,36854,147416008,508,0,0
S,36855,147420012,508,0,0
S,36856,147424008,511,0,0
S,36857,147428008,515,0,0
S,36858,147432008,519,0,0
S,36859,147436012,522,0,0
S,36860,147440008,526,0,0
S,36861,147444008,530,0,0
S,36862,147448008,534,0,0
S,36863,147452012,534,0,0
S,36864,147456008,530,0,0
S,36865,147460008,526,0,0
S,36866,147464008,522,0,0
S,36867,147468008,519,0,0
S,36868,147472008,515,0,0
S,36869,147476012,511,0,0
S,36870,147480008,508,0,0
S,36871,147484008,508,0,0
S,36872,147488008,508,0,0
S,36873,147492008,508,0,0
S,36874,147496008,508,0,0
S,36875,147500008,507,0,0
S,36876,147504008,507,0,0
S,36877,147508008,507,0,0
S,36878,147512008,507,0,0
S,36879,147516008,507,0,0
S,36880,147520008,500,0,0
S,36881,147524008,485,0,0
S,36882,147528008,470,0,0
S,36883,147532008,470,0,0
S,36884,147536008,485,0,0
S,36885,147540008,500,0,0
S,36886,147544012,507,0,0
S,36887,147548008,507,0,0
S,36888,147552008,592,0,0
S,36889,147556008,677,0,0
S,36890,147560012,761,0,0
S,36891,147564008,677,0,0
S,36892,147568008,592,0,0
S,36893,147572008,507,0,0
S,36894,147576008,507,0,0
S,36895,147580008,491,0,0
S,36896,147584008,475,0,0
S,36897,147588008,459,0,0
S,36898,147592008,442,0,0
S,36899,147596008,459,0,0
S,36900,147600008,474,0,0
S,36901,147604008,490,0,0
S,36902,147608008,506,0,0
S,36903,147612008,506,0,0
S,36904,147616008,506,0,0
S,36905,147620012,506,0,0
S,36906,147624008,506,0,0
S,36907,147628008,506,0,0
S,36908,147632008,506,0,0
S,36909,147636008,506,0,0
S,36910,147640008,506,0,0
S,36911,147644008,506,0,0
S,36912,147648008,509,0,0
S,36913,147652008,515,0,0
S,36914,147656008,520,0,0
S,36915,147660008,525,0,0
S,36916,147664008,530,0,0
S,36917,147668008,536,0,0
S,36918,147672008,541,0,0
S,36919,147676008,546,0,0
S,36920,147680008,551,0,0
S,36921,147684008,557,0,0
S,36922,147688008,562,0,0
S,36923,147692008,567,0,0
S,36924,147696008,572,0,0
S,36925,147700008,576,0,0
S,36926,147704012,582,0,0
S,36927,147708012,587,0,0
S,36928,147712008,587,0,0
S,36929,147716008,582,0,0
S,36930,147720008,576,0,0
S,36931,147724008,571,0,0
S,36932,147728008,566,0,0
S,36933,147732008,561,0,0
S,36934,147736008,556,0,0
S,36935,147740012,550,0,0
S,36936,147744012,545,0,0
S,36937,147748008,540,0,0
S,36938,147752008,535,0,0
S,36939,147756008,529,0,0
S,36940,147760008,524,0,0
S,36941,147764008,519,0,0
S,36942,147768012,514,0,0
S,36943,147772008,508,0,0
S,36944,147776008,505,0,0
S,36945,147780008,505,0,0
S,36946,147784008,505,0,0
S,36947,147788008,505,0,0
S,36948,147792008,505,0,0
S,36949,147796008,505,0,0
S,36950,147800008,504,0,0
S,36951,147804008,504,0,0
S,36952,147808008,504,0,0
S,36953,147812008,504,0,0
S,36954,147816008,504,0,0
S,36955,147820012,504,0,0
S,36956,147824012,504,0,0
S,36957,147828008,504,0,0
S,36958,147832008,504,0,0
S,36959,147836008,504,0,0
S,36960,147840008,504,0,0
S,36961,147844008,504,0,0
S,36962,147848012,504,0,0
S,36963,147852008,504,0,0
S,36964,147856008,504,0,0
S,36965,147860008,504,0,0
S,36966,147864008,504,0,0
S,36967,147868012,504,0,0
S,36968,147872012,504,0,0
S,36969,147876012,504,0,0
S,36970,147880012,504,0,0
S,36971,147884008,504,0,0
S,36972,147888008,504,0,0
S,36973,147892008,504,0,0
S,36974,147896008,504,0,0
S,36975,147900012,503,0,0
S,36976,147904008,506,0,0
S,36977,147908008,510,0,0
S,36978,147912008,514,0,0
S,36979,147916008,517,0,0
S,36980,147920008,521,0,0
S,36981,147924008,525,0,0
S,36982,147928008,529,0,0
S,36983,147932008,529,0,0
S,36984,147936008,525,0,0
S,36985,147940008,521,0,0
S,36986,147944008,517,0,0
S,36987,147948008,514,0,0
S,36988,147952012,510,0,0
S,36989,147956008,506,0,0
S,36990,147960008,503,0,0
S,36991,147964008,503,0,0
S,36992,147968008,503,0,0
S,36993,147972008,503,0,0
S,36994,147976008,503,0,0
S,36995,147980008,503,0,0
S,36996,147984008,503,0,0
S,36997,147988008,503,0,0
S,36998,147992012,503,0,0
S,36999,147996008,503,0,0
S,37000,148000008,495,0,0
S,37001,148004008,480,0,0
S,37002,148008012,465,0,0
S,37003,148012008,465,0,0
S,37004,148016008,480,0,0
S,37005,148020008,495,0,0
S,37006,148024008,502,0,0
S,37007,148028008,502,0,0
S,37008,148032008,587,0,0
