S,0,24,406,0,0,398
S,1,4020,437,0,0,3584
S,2,8020,435,0,0,7909
S,3,12024,403,0,0,12136
S,4,16020,383,0,0,16367
S,5,20020,402,0,0,20387
S,6,24020,426,0,0,23672
S,7,28020,421,0,0,27862
S,8,32020,386,0,0,31902
S,9,36020,363,0,0,36310
S,10,40020,380,0,0,40226
S,11,44020,405,0,0,43626
S,12,48020,400,0,0,47624
S,13,52020,365,0,0,51796
S,14,56020,346,0,0,56192
S,15,60020,367,0,0,60180
S,16,64020,396,0,0,64392
S,17,68020,393,0,0,2093
S,18,72020,362,0,0,6189
S,19,76020,344,0,0,10686
S,20,80020,365,0,0,14828
S,21,84020,395,0,0,18859
S,22,88020,393,0,0,22090
S,23,92020,361,0,0,26123
S,24,96020,343,0,0,30298
S,25,100020,365,0,0,34753
S,26,104020,395,0,0,38852
S,27,108024,395,0,0,42089
S,28,112024,364,0,0,46313
S,29,116020,344,0,0,50288
S,30,120020,363,0,0,54688
S,31,124020,395,0,0,58849
S,32,128020,395,0,0,62910
S,33,132024,364,0,0,759
S,34,136020,345,0,0,4653
S,35,140020,366,0,0,9147
S,36,144024,397,0,0,13107
S,37,148020,396,0,0,17311
S,38,152020,364,0,0,20636
S,39,156020,344,0,0,24585
S,40,160020,364,0,0,28754
S,41,164024,395,0,0,33048
S,42,168020,394,0,0,37366
S,43,172024,363,0,0,40634
S,44,176020,344,0,0,44770
S,45,180020,365,0,0,48758
S,46,184020,397,0,0,53109
S,47,188020,396,0,0,57301
S,48,192020,364,0,0,61258
S,49,196020,344,0,0,64735
S,50,200024,363,0,0,3074
S,51,204020,393,0,0,7501
S,52,208020,392,0,0,11563
S,53,212024,359,0,0,15721
S,54,216020,338,0,0,19123
S,55,220020,359,0,0,23079
S,56,224020,391,0,0,27304
S,57,228024,391,0,0,31493
S,58,232020,357,0,0,35592
S,59,236020,336,0,0,39068
S,60,240020,355,0,0,43208
S,61,244020,386,0,0,47240
S,62,248020,386,0,0,51563
S,63,252020,354,0,0,55594
S,64,256020,332,0,0,59675
S,65,260024,352,0,0,63130
S,66,264020,384,0,0,1682
S,67,268020,384,0,0,5939
S,68,272020,353,0,0,10165
S,69,276024,333,0,0,14132
S,70,280020,353,0,0,17655
S,71,284020,385,0,0,21686
S,72,288020,384,0,0,25816
S,73,292020,351,0,0,30118
S,74,296020,330,0,0,34128
S,75,300020,350,0,0,37605
S,76,304020,382,0,0,41634
S,77,308020,384,0,0,45821
S,78,312020,351,0,0,50113
S,79,316020,330,0,0,54133
S,80,320020,349,0,0,58141
S,81,324020,381,0,0,61596
S,82,328020,381,0,0,126
S,83,332020,350,0,0,4604
S,84,336020,329,0,0,8588
S,85,340020,348,0,0,12600
S,86,344020,381,0,0,16122
S,87,348024,386,0,0,20136
S,88,352020,358,0,0,24111
S,89,356024,339,0,0,28599
S,90,360020,359,0,0,32620
S,91,364020,391,0,0,35885
S,92,368020,393,0,0,40004
S,93,372020,364,0,0,44032
S,94,376020,343,0,0,48600
S,95,380020,363,0,0,52549
S,96,384020,397,0,0,56828
S,97,388024,398,0,0,59986
S,98,392020,366,0,0,64093
S,99,396020,342,0,0,3015
S,100,400024,358,0,0,7068
S,101,404024,389,0,0,11230
S,102,408020,390,0,0,14386
S,103,412020,357,0,0,18544
S,104,416020,332,0,0,22582
S,105,420020,347,0,0,27008
S,106,424020,376,0,0,31040
S,107,428020,377,0,0,34528
S,108,432020,348,0,0,38562
S,109,436020,329,0,0,42518
S,110,440020,347,0,0,47079
S,111,444020,376,0,0,51045
S,112,448020,377,0,0,55067
S,113,452020,346,0,0,58521
S,114,456020,325,0,0,62565
S,115,460020,343,0,0,1495
S,116,464020,374,0,0,5521
S,117,468020,377,0,0,9535
S,118,472020,348,0,0,13049
S,119,476020,327,0,0,16963
S,120,480020,341,0,0,21054
S,121,484020,365,0,0,25511
S,122,488020,365,0,0,29508
S,123,492020,345,0,0,32977
S,124,496020,353,0,0,37006
S,125,500020,422,0,0,41192
S,126,504020,520,0,0,45733
S,127,508020,588,0,0,49728
S,128,512020,597,0,0,53958
S,129,516020,554,0,0,56600
S,130,520020,498,0,0,60963
S,131,524020,453,0,0,65461
S,132,528020,402,0,0,3978
S,133,532024,341,0,0,8160
S,134,536024,309,0,0,11363
S,135,540020,328,0,0,15539
S,136,544020,361,0,0,19709
S,137,548020,364,0,0,23897
S,138,552020,333,0,0,28059
S,139,556020,313,0,0,31310
S,140,560024,330,0,0,35414
S,141,564020,360,0,0,39641
S,142,568020,363,0,0,43833
S,143,572020,334,0,0,48061
S,144,576020,314,0,0,52150
S,145,580020,333,0,0,55392
S,146,584020,365,0,0,59555
S,147,588020,369,0,0,63774
S,148,592024,341,0,0,2384
S,149,596020,322,0,0,6634
S,150,600020,340,0,0,9759
S,151,604020,371,0,0,13977
S,152,608024,374,0,0,18175
S,153,612020,347,0,0,22399
S,154,616024,327,0,0,26508
S,155,620020,345,0,0,29759
S,156,624020,377,0,0,33912
S,157,628020,380,0,0,38108
S,158,632020,352,0,0,42275
S,159,636024,332,0,0,46498
S,160,640024,349,0,0,50668
S,161,644020,379,0,0,53863
S,162,648020,383,0,0,57984
S,163,652020,355,0,0,62269
S,164,656020,336,0,0,874
S,165,660020,354,0,0,5113
S,166,664024,385,0,0,8437
S,167,668020,390,0,0,12383
S,168,672020,362,0,0,16604
S,169,676020,342,0,0,20801
S,170,680020,359,0,0,24979
S,171,684020,392,0,0,28381
S,172,688020,396,0,0,32446
S,173,692020,369,0,0,36578
S,174,696020,349,0,0,40749
S,175,700020,366,0,0,44991
S,176,704020,398,0,0,48928
S,177,708020,402,0,0,52381
S,178,712020,376,0,0,56468
S,179,716020,356,0,0,60713
S,180,720024,374,0,0,64848
S,181,724020,406,0,0,3356
S,182,728024,413,0,0,6904
S,183,732020,386,0,0,10826
S,184,736020,365,0,0,15050
S,185,740020,383,0,0,19321
S,186,744020,416,0,0,23365
S,187,748020,421,0,0,26849
S,188,752020,393,0,0,30890
S,189,756020,372,0,0,35062
S,190,760020,388,0,0,39397
S,191,764024,417,0,0,43373
S,192,768020,419,0,0,47484
S,193,772020,389,0,0,50939
S,194,776020,364,0,0,55025
S,195,780020,377,0,0,59205
S,196,784020,403,0,0,63432
S,197,788020,401,0,0,1900
S,198,792020,367,0,0,5233
S,199,796020,340,0,0,9451
S,200,800020,351,0,0,13455
S,201,804020,379,0,0,17674
S,202,808020,380,0,0,21998
S,203,812020,350,0,0,25197
S,204,816024,326,0,0,29214
S,205,820020,339,0,0,33446
S,206,824020,367,0,0,37753
S,207,828020,369,0,0,41926
S,208,832020,340,0,0,45980
S,209,836020,318,0,0,49239
S,210,840020,334,0,0,53444
S,211,844020,365,0,0,57670
S,212,848020,369,0,0,61757
S,213,852020,340,0,0,440
S,214,856020,317,0,0,3634
S,215,860020,332,0,0,7906
S,216,864020,363,0,0,11946
S,217,868020,367,0,0,16143
S,218,872020,339,0,0,20432
S,219,876020,317,0,0,23583
S,220,880020,333,0,0,27656
S,221,884020,364,0,0,31880
S,222,888020,369,0,0,36214
S,223,892020,340,0,0,40434
S,224,896024,316,0,0,44489
S,225,900020,332,0,0,47636
S,226,904020,363,0,0,51920
S,227,908020,368,0,0,56170
S,228,912020,340,0,0,60201
S,229,916020,316,0,0,64480
S,230,920020,331,0,0,2167
S,231,924020,362,0,0,6391
S,232,928020,368,0,0,10370
S,233,932020,340,0,0,14599
S,234,936020,316,0,0,18828
S,235,940020,330,0,0,22107
S,236,944020,361,0,0,26143
S,237,948020,367,0,0,30392
S,238,952024,339,0,0,34667
S,239,956020,315,0,0,38830
S,240,960024,330,0,0,42924
S,241,964020,361,0,0,46114
S,242,968020,368,0,0,50392
S,243,972020,340,0,0,54621
S,244,976020,317,0,0,58707
S,245,980020,331,0,0,62852
S,246,984020,362,0,0,583
S,247,988020,367,0,0,4835
S,248,992020,339,0,0,8880
S,249,996020,314,0,0,13176
S,250,1000020,328,0,0,17385
S,251,1004020,358,0,0,20582
S,252,1008020,365,0,0,24586
S,253,1012020,338,0,0,28820
S,254,1016020,316,0,0,33049
S,255,1020020,328,0,0,37324
S,256,1024020,358,0,0,41085
S,257,1028020,364,0,0,45014
S,258,1032020,339,0,0,48906
S,259,1036020,315,0,0,52931
S,260,1040020,328,0,0,57047
S,261,1044020,357,0,0,61019
S,262,1048020,364,0,0,64945
S,263,1052020,339,0,0,3376
S,264,1056020,318,0,0,7474
S,265,1060020,330,0,0,11495
S,266,1064024,360,0,0,15402
S,267,1068020,368,0,0,19359
S,268,1072020,344,0,0,23504
S,269,1076020,322,0,0,27499
S,270,1080020,334,0,0,31364
S,271,1084020,361,0,0,35330
S,272,1088024,369,0,0,39529
S,273,1092020,346,0,0,43503
S,274,1096024,323,0,0,47385
S,275,1100020,334,0,0,51385
S,276,1104020,362,0,0,55546
S,277,1108020,369,0,0,59456
S,278,1112024,348,0,0,63362
S,279,1116024,327,0,0,1849
S,280,1120020,340,0,0,5961
S,281,1124020,370,0,0,9934
S,282,1128020,380,0,0,13859
S,283,1132020,360,0,0,17814
S,284,1136020,339,0,0,21962
S,285,1140020,349,0,0,25957
S,286,1144020,376,0,0,29859
S,287,1148020,386,0,0,34040
S,288,1152020,366,0,0,37963
S,289,1156020,346,0,0,41950
S,290,1160020,358,0,0,45825
S,291,1164020,383,0,0,49849
S,292,1168020,389,0,0,53796
S,293,1172020,364,0,0,57964
S,294,1176024,341,0,0,61882
S,295,1180020,350,0,0,287
S,296,1184020,377,0,0,4439
S,297,1188020,381,0,0,8434
S,298,1192020,355,0,0,12303
S,299,1196024,330,0,0,16267
S,300,1200020,340,0,0,20478
S,301,1204024,370,0,0,24437
S,302,1208020,379,0,0,28307
S,303,1212020,354,0,0,32299
S,304,1216024,330,0,0,36464
S,305,1220020,342,0,0,40385
S,306,1224024,375,0,0,44303
S,307,1228020,384,0,0,48213
S,308,1232020,358,0,0,52436
S,309,1236020,333,0,0,56414
S,310,1240020,346,0,0,60330
S,311,1244024,381,0,0,64288
S,312,1248024,392,0,0,3003
S,313,1252020,367,0,0,6897
S,314,1256020,339,0,0,10798
S,315,1260020,349,0,0,14721
S,316,1264024,390,0,0,18737
S,317,1268024,425,0,0,22975
S,318,1272020,446,0,0,26695
S,319,1276020,484,0,0,30908
S,320,1280020,564,0,0,35699
S,321,1284020,650,0,0,37996
S,322,1288020,659,0,0,42134
S,323,1292020,569,0,0,46493
S,324,1296020,462,0,0,50701
S,325,1300020,416,0,0,54978
S,326,1304020,415,0,0,58654
S,327,1308020,411,0,0,62907
S,328,1312024,383,0,0,1339
S,329,1316020,357,0,0,5260
S,330,1320020,368,0,0,9338
S,331,1324020,402,0,0,13113
S,332,1328020,413,0,0,17233
S,333,1332020,388,0,0,21481
S,334,1336020,360,0,0,25318
S,335,1340020,371,0,0,29276
S,336,1344024,405,0,0,33481
S,337,1348020,418,0,0,37203
S,338,1352020,394,0,0,41368
S,339,1356020,368,0,0,45251
S,340,1360020,379,0,0,49327
S,341,1364024,414,0,0,53479
S,342,1368020,426,0,0,57148
S,343,1372020,402,0,0,61349
S,344,1376020,374,0,0,65326
S,345,1380020,385,0,0,3705
S,346,1384020,419,0,0,7864
S,347,1388020,431,0,0,11541
S,348,1392020,406,0,0,15691
S,349,1396020,379,0,0,19719
S,350,1400020,390,0,0,23577
S,351,1404020,424,0,0,27798
S,352,1408020,436,0,0,31957
S,353,1412020,411,0,0,35675
S,354,1416024,384,0,0,39855
S,355,1420020,395,0,0,43529
S,356,1424024,430,0,0,47687
S,357,1428020,444,0,0,51960
S,358,1432024,420,0,0,55567
S,359,1436020,394,0,0,59788
S,360,1440020,404,0,0,63997
S,361,1444020,440,0,0,2163
S,362,1448020,451,0,0,6379
S,363,1452020,426,0,0,10019
S,364,1456020,399,0,0,14177
S,365,1460020,411,0,0,18388
S,366,1464020,447,0,0,22035
S,367,1468024,461,0,0,26316
S,368,1472024,436,0,0,30410
S,369,1476020,408,0,0,34123
S,370,1480020,417,0,0,38289
S,371,1484020,453,0,0,42068
S,372,1488024,467,0,0,46121
S,373,1492024,444,0,0,50407
S,374,1496024,417,0,0,54041
S,375,1500020,427,0,0,58302
S,376,1504020,462,0,0,62388
S,377,1508020,477,0,0,519
S,378,1512020,453,0,0,4860
S,379,1516020,424,0,0,8496
S,380,1520020,433,0,0,12622
S,381,1524020,469,0,0,16779
S,382,1528024,482,0,0,20563
S,383,1532024,457,0,0,24793
S,384,1536020,425,0,0,28714
S,385,1540020,430,0,0,32652
S,386,1544020,460,0,0,36621
S,387,1548020,469,0,0,40629
S,388,1552020,441,0,0,44734
S,389,1556020,409,0,0,48703
S,390,1560024,413,0,0,52692
S,391,1564024,440,0,0,56656
S,392,1568024,448,0,0,60743
S,393,1572024,419,0,0,64645
S,394,1576020,385,0,0,3143
S,395,1580020,390,0,0,7137
S,396,1584020,420,0,0,11172
S,397,1588024,431,0,0,15106
S,398,1592020,404,0,0,19158
S,399,1596020,374,0,0,23189
S,400,1600020,380,0,0,27360
S,401,1604020,411,0,0,31142
S,402,1608020,423,0,0,35193
S,403,1612024,400,0,0,39139
S,404,1616020,371,0,0,43115
S,405,1620020,377,0,0,47296
S,406,1624024,407,0,0,51137
S,407,1628020,419,0,0,55128
S,408,1632024,396,0,0,59156
S,409,1636020,368,0,0,63045
S,410,1640024,374,0,0,1709
S,411,1644024,405,0,0,5615
S,412,1648020,419,0,0,9650
S,413,1652020,397,0,0,13629
S,414,1656020,369,0,0,17442
S,415,1660020,375,0,0,21637
S,416,1664020,406,0,0,25659
S,417,1668020,418,0,0,29614
S,418,1672020,395,0,0,33636
S,419,1676020,369,0,0,37439
S,420,1680020,375,0,0,41566
S,421,1684020,403,0,0,45595
S,422,1688020,416,0,0,49611
S,423,1692020,400,0,0,53594
S,424,1696020,379,0,0,57822
S,425,1700020,385,0,0,61573
S,426,1704024,409,0,0,113
S,427,1708020,420,0,0,4065
S,428,1712020,405,0,0,8119
S,429,1716020,385,0,0,12034
S,430,1720020,389,0,0,16101
S,431,1724020,411,0,0,20058
S,432,1728020,420,0,0,24090
S,433,1732020,405,0,0,28042
S,434,1736020,384,0,0,32124
S,435,1740020,386,0,0,36063
S,436,1744024,408,0,0,40110
S,437,1748020,417,0,0,44090
S,438,1752020,402,0,0,48106
S,439,1756020,381,0,0,52132
S,440,1760020,382,0,0,56264
S,441,1764020,402,0,0,60037
S,442,1768020,413,0,0,64105
S,443,1772020,398,0,0,2522
S,444,1776020,379,0,0,6472
S,445,1780020,380,0,0,10734
S,446,1784020,401,0,0,14560
S,447,1788024,410,0,0,18502
S,448,1792020,395,0,0,22596
S,449,1796020,375,0,0,26393
S,450,1800024,378,0,0,30715
S,451,1804020,398,0,0,34466
S,452,1808020,408,0,0,38611
S,453,1812020,395,0,0,42593
S,454,1816020,377,0,0,46448
S,455,1820020,378,0,0,50642
S,456,1824020,398,0,0,54601
S,457,1828020,408,0,0,58622
S,458,1832020,394,0,0,62479
S,459,1836020,373,0,0,854
S,460,1840020,373,0,0,4913
S,461,1844020,393,0,0,9068
S,462,1848020,403,0,0,12949
S,463,1852020,391,0,0,16928
S,464,1856020,373,0,0,21165
S,465,1860020,375,0,0,24846
S,466,1864024,396,0,0,28954
S,467,1868020,406,0,0,32941
S,468,1872024,392,0,0,37080
S,469,1876020,372,0,0,41097
S,470,1880024,372,0,0,44902
S,471,1884024,393,0,0,48954
S,472,1888020,404,0,0,53060
S,473,1892020,390,0,0,57079
S,474,1896020,370,0,0,61152
S,475,1900020,371,0,0,64832
S,476,1904020,391,0,0,3538
S,477,1908020,403,0,0,7527
S,478,1912020,392,0,0,11423
S,479,1916020,375,0,0,15553
S,480,1920020,379,0,0,19602
S,481,1924020,401,0,0,23513
S,482,1928020,413,0,0,27446
S,483,1932020,400,0,0,31386
S,484,1936020,378,0,0,35351
S,485,1940020,380,0,0,39600
S,486,1944020,402,0,0,43453
S,487,1948024,415,0,0,47389
S,488,1952024,404,0,0,51577
S,489,1956020,384,0,0,55488
S,490,1960020,382,0,0,59613
S,491,1964020,399,0,0,63373
S,492,1968020,406,0,0,2032
S,493,1972020,392,0,0,5967
S,494,1976020,370,0,0,9814
S,495,1980020,368,0,0,14069
S,496,1984020,384,0,0,18042
S,497,1988020,393,0,0,21970
S,498,1992020,379,0,0,26051
S,499,1996020,359,0,0,29822
S,500,2000020,359,0,0,33817
S,501,2004020,378,0,0,38053
S,502,2008020,389,0,0,41913
S,503,2012020,377,0,0,46052
S,504,2016020,357,0,0,50071
S,505,2020024,357,0,0,53818
S,506,2024024,376,0,0,58052
S,507,2028024,387,0,0,61854
S,508,2032024,375,0,0,268
S,509,2036020,356,0,0,4530
S,510,2040020,355,0,0,8278
S,511,2044020,373,0,0,12513
S,512,2048020,382,0,0,17269
S,513,2052020,365,0,0,19655
S,514,2056020,346,0,0,23571
S,515,2060020,359,0,0,28047
S,516,2064020,413,0,0,32018
S,517,2068020,480,0,0,36302
S,518,2072020,537,0,0,40404
S,519,2076020,579,0,0,44335
S,520,2080024,602,0,0,48469
S,521,2084020,579,0,0,52449
S,522,2088024,510,0,0,57267
S,523,2092020,431,0,0,59471
S,524,2096020,365,0,0,63722
S,525,2100024,340,0,0,2113
S,526,2104020,353,0,0,6555
S,527,2108020,367,0,0,10548
S,528,2112024,358,0,0,14670
S,529,2116020,337,0,0,19156
S,530,2120024,334,0,0,23076
S,531,2124020,351,0,0,27544
S,532,2128020,363,0,0,31691
S,533,2132020,354,0,0,35683
S,534,2136020,335,0,0,38061
S,535,2140020,333,0,0,41998
S,536,2144024,351,0,0,46207
S,537,2148024,365,0,0,50668
S,538,2152020,356,0,0,54538
S,539,2156020,337,0,0,59038
S,540,2160020,335,0,0,63207
S,541,2164024,354,0,0,1638
S,542,2168020,367,0,0,6020
S,543,2172024,360,0,0,10030
S,544,2176020,342,0,0,14147
S,545,2180020,341,0,0,16609
S,546,2184020,360,0,0,20543
S,547,2188020,372,0,0,24962
S,548,2192024,363,0,0,29174
S,549,2196024,344,0,0,33124
S,550,2200024,341,0,0,37514
S,551,2204020,360,0,0,41498
S,552,2208024,373,0,0,45668
S,553,2212024,366,0,0,50142
S,554,2216020,349,0,0,54018
S,555,2220020,347,0,0,56485
S,556,2224024,364,0,0,60665
S,557,2228020,378,0,0,64578
S,558,2232024,371,0,0,3495
S,559,2236024,354,0,0,7447
S,560,2240020,352,0,0,11622
S,561,2244020,372,0,0,16083
S,562,2248020,386,0,0,20166
S,563,2252020,378,0,0,24479
S,564,2256020,359,0,0,28645
S,565,2260024,359,0,0,32584
S,566,2264024,378,0,0,34998
S,567,2268024,393,0,0,39140
S,568,2272020,388,0,0,43146
S,569,2276024,371,0,0,47568
S,570,2280020,368,0,0,51516
S,571,2284020,386,0,0,55919
S,572,2288020,399,0,0,59909
S,573,2292020,392,0,0,64163
S,574,2296020,375,0,0,3006
S,575,2300024,375,0,0,6931
S,576,2304020,394,0,0,11261
S,577,2308020,407,0,0,13377
S,578,2312020,398,0,0,17595
S,579,2316020,379,0,0,21999
S,580,2320020,378,0,0,25993
S,581,2324020,398,0,0,30172
S,582,2328020,410,0,0,34347
S,583,2332020,398,0,0,38558
S,584,2336020,376,0,0,42503
S,585,2340020,373,0,0,47019
S,586,2344020,390,0,0,51131
S,587,2348020,398,0,0,53266
S,588,2352020,383,0,0,57476
S,589,2356020,356,0,0,61502
S,590,2360024,350,0,0,492
S,591,2364020,366,0,0,4465
S,592,2368020,375,0,0,8471
S,593,2372020,361,0,0,12968
S,594,2376020,337,0,0,17011
S,595,2380020,333,0,0,21454
S,596,2384020,351,0,0,25531
S,597,2388020,362,0,0,29487
S,598,2392020,350,0,0,31992
S,599,2396020,329,0,0,35918
S,600,2400020,327,0,0,39983
S,601,2404024,345,0,0,44444
S,602,2408024,356,0,0,48450
S,603,2412020,346,0,0,52945
S,604,2416020,325,0,0,57001
S,605,2420024,324,0,0,60933
S,606,2424024,345,0,0,65531
S,607,2428020,359,0,0,3945
S,608,2432020,349,0,0,7948
S,609,2436020,329,0,0,10425
S,610,2440020,327,0,0,14420
S,611,2444020,346,0,0,18920
S,612,2448020,358,0,0,22963
S,613,2452020,348,0,0,26920
S,614,2456020,327,0,0,31440
S,615,2460020,327,0,0,35441
S,616,2464024,348,0,0,39433
S,617,2468020,361,0,0,43921
S,618,2472020,350,0,0,47941
S,619,2476020,328,0,0,50418
S,620,2480020,328,0,0,54421
S,621,2484020,351,0,0,58403
S,622,2488024,364,0,0,62975
S,623,2492020,350,0,0,1379
S,624,2496020,327,0,0,5381
S,625,2500020,327,0,0,9892
S,626,2504020,352,0,0,13920
S,627,2508020,366,0,0,18383
S,628,2512020,352,0,0,22438
S,629,2516020,327,0,0,26400
S,630,2520024,326,0,0,28878
S,631,2524024,349,0,0,32884
S,632,2528020,363,0,0,36897
S,633,2532020,349,0,0,41398
S,634,2536020,327,0,0,45391
S,635,2540020,328,0,0,49889
S,636,2544020,353,0,0,53935
S,637,2548020,369,0,0,57886
S,638,2552020,354,0,0,62446
S,639,2556020,329,0,0,869
S,640,2560024,329,0,0,5110
S,641,2564020,354,0,0,7280
S,642,2568020,370,0,0,11395
S,643,2572020,354,0,0,15666
S,644,2576020,325,0,0,19826
S,645,2580020,323,0,0,24021
S,646,2584020,350,0,0,28203
S,647,2588020,368,0,0,32420
S,648,2592020,353,0,0,36570
S,649,2596020,324,0,0,40798
S,650,2600020,323,0,0,44986
S,651,2604020,350,0,0,47110
S,652,2608020,370,0,0,51277
S,653,2612020,356,0,0,55546
S,654,2616024,327,0,0,59702
S,655,2620020,323,0,0,63903
S,656,2624020,350,0,0,2546
S,657,2628020,370,0,0,6783
S,658,2632020,357,0,0,10891
S,659,2636020,327,0,0,15112
S,660,2640024,323,0,0,19303
S,661,2644020,350,0,0,23511
S,662,2648024,370,0,0,25620
S,663,2652020,357,0,0,29870
S,664,2656024,328,0,0,34016
S,665,2660020,324,0,0,38209
S,666,2664020,352,0,0,42374
S,667,2668020,370,0,0,46645
S,668,2672020,356,0,0,50756
S,669,2676024,328,0,0,54981
S,670,2680020,324,0,0,59174
S,671,2684020,352,0,0,63395
S,672,2688020,371,0,0,2030
S,673,2692020,359,0,0,4187
S,674,2696020,330,0,0,8341
S,675,2700020,327,0,0,12601
S,676,2704024,358,0,0,16755
S,677,2708020,380,0,0,20932
S,678,2712020,368,0,0,25131
S,679,2716020,337,0,0,29355
S,680,2720024,333,0,0,33492
S,681,2724020,362,0,0,37726
S,682,2728020,386,0,0,41813
S,683,2732020,375,0,0,44033
S,684,2736024,345,0,0,48196
S,685,2740020,337,0,0,52449
S,686,2744020,361,0,0,56634
S,687,2748020,380,0,0,60814
S,688,2752020,366,0,0,64995
S,689,2756020,334,0,0,3681
S,690,2760020,326,0,0,7818
S,691,2764020,350,0,0,12083
S,692,2768024,368,0,0,16246
S,693,2772020,352,0,0,20427
S,694,2776024,321,0,0,22533
S,695,2780020,315,0,0,26834
S,696,2784020,344,0,0,30942
S,697,2788024,366,0,0,35141
S,698,2792020,354,0,0,39334
S,699,2796024,324,0,0,43565
S,700,2800020,318,0,0,47676
S,701,2804020,346,0,0,51961
S,702,2808024,368,0,0,56124
S,703,2812020,357,0,0,60292
S,704,2816020,326,0,0,64440
S,705,2820020,320,0,0,1054
S,706,2824020,346,0,0,5351
S,707,2828020,367,0,0,9587
S,708,2832024,349,0,0,13610
S,709,2836020,315,0,0,17889
S,710,2840020,317,0,0,22020
S,711,2844020,373,0,0,26349
S,712,2848020,446,0,0,30281
S,713,2852024,500,0,0,34734
S,714,2856020,533,0,0,38048
S,715,2860020,568,0,0,41772
S,716,2864020,579,0,0,45872
S,717,2868020,531,0,0,50113
S,718,2872024,439,0,0,53642
S,719,2876020,353,0,0,57841
S,720,2880020,315,0,0,61908
S,721,2884020,332,0,0,517
S,722,2888020,355,0,0,4809
S,723,2892020,345,0,0,9042
S,724,2896020,313,0,0,13141
S,725,2900024,304,0,0,17393
S,726,2904024,331,0,0,19561
S,727,2908024,352,0,0,23779
S,728,2912020,341,0,0,27829
S,729,2916020,311,0,0,32118
S,730,2920024,305,0,0,36255
S,731,2924020,333,0,0,40526
S,732,2928020,356,0,0,44544
S,733,2932020,344,0,0,48797
S,734,2936020,313,0,0,53023
S,735,2940020,307,0,0,57268
S,736,2944020,336,0,0,61320
S,737,2948024,360,0,0,63517
S,738,2952020,349,0,0,2246
S,739,2956020,318,0,0,6404
S,740,2960020,312,0,0,10597
S,741,2964020,341,0,0,14761
S,742,2968024,366,0,0,19069
S,743,2972020,354,0,0,23260
S,744,2976020,322,0,0,27283
S,745,2980020,315,0,0,31563
S,746,2984020,343,0,0,35780
S,747,2988020,368,0,0,37954
S,748,2992020,357,0,0,42032
S,749,2996024,324,0,0,46268
S,750,3000024,317,0,0,50470
S,751,3004020,346,0,0,54764
S,752,3008020,372,0,0,58813
S,753,3012020,362,0,0,62978
S,754,3016020,332,0,0,1732
S,755,3020020,325,0,0,5996
S,756,3024024,353,0,0,10019
S,757,3028020,379,0,0,14228
S,758,3032020,370,0,0,16510
S,759,3036020,339,0,0,20734
S,760,3040020,331,0,0,24713
S,761,3044024,360,0,0,28935
S,762,3048024,386,0,0,33038
S,763,3052024,378,0,0,37463
S,764,3056020,347,0,0,41501
S,765,3060020,340,0,0,45747
S,766,3064020,369,0,0,50037
S,767,3068020,396,0,0,54057
S,768,3072020,387,0,0,58041
S,769,3076020,357,0,0,60926
S,770,3080020,350,0,0,64806
S,771,3084020,378,0,0,3234
S,772,3088020,403,0,0,7212
S,773,3092020,394,0,0,11412
S,774,3096020,364,0,0,16273
S,775,3100020,357,0,0,20281
S,776,3104020,383,0,0,24396
S,777,3108020,408,0,0,28170
S,778,3112020,397,0,0,32508
S,779,3116020,364,0,0,35260
S,780,3120020,352,0,0,39383
S,781,3124020,376,0,0,43374
S,782,3128020,397,0,0,47224
S,783,3132020,385,0,0,51413
S,784,3136020,349,0,0,55414
S,785,3140024,335,0,0,60361
S,786,3144020,357,0,0,64268
S,787,3148024,378,0,0,2721
S,788,3152024,365,0,0,6865
S,789,3156020,332,0,0,10845
S,790,3160020,320,0,0,13746
S,791,3164024,344,0,0,17671
S,792,3168020,366,0,0,21842
S,793,3172020,357,0,0,25848
S,794,3176020,324,0,0,29754
S,795,3180020,313,0,0,34790
S,796,3184020,337,0,0,38889
S,797,3188020,361,0,0,42864
S,798,3192020,353,0,0,46747
S,799,3196020,324,0,0,50719
S,800,3200024,315,0,0,54835
S,801,3204020,341,0,0,57840
S,802,3208020,365,0,0,61739
S,803,3212020,357,0,0,131
S,804,3216020,328,0,0,4297
S,805,3220020,320,0,0,8288
S,806,3224020,345,0,0,13210
S,807,3228020,369,0,0,17171
S,808,3232020,360,0,0,21349
S,809,3236020,330,0,0,25318
S,810,3240020,321,0,0,29198
S,811,3244020,346,0,0,32180
S,812,3248020,370,0,0,36347
S,813,3252024,363,0,0,40271
S,814,3256020,333,0,0,44166
S,815,3260024,323,0,0,48165
S,816,3264024,348,0,0,52293
S,817,3268020,372,0,0,57280
S,818,3272020,365,0,0,61242
S,819,3276020,335,0,0,65209
S,820,3280020,325,0,0,3799
S,821,3284020,349,0,0,7790
S,822,3288020,375,0,0,10663
S,823,3292020,367,0,0,14622
S,824,3296020,337,0,0,18767
S,825,3300020,325,0,0,22778
S,826,3304020,351,0,0,26627
S,827,3308020,376,0,0,31621
S,828,3312024,370,0,0,35812
S,829,3316024,340,0,0,39779
S,830,3320024,330,0,0,43678
S,831,3324020,354,0,0,47643
S,832,3328020,380,0,0,51738
S,833,3332020,372,0,0,54707
S,834,3336024,341,0,0,58749
S,835,3340024,328,0,0,62657
S,836,3344020,352,0,0,1155
S,837,3348020,377,0,0,5179
S,838,3352020,370,0,0,10195
S,839,3356020,339,0,0,14163
S,840,3360020,327,0,0,18216
S,841,3364020,352,0,0,22190
S,842,3368024,378,0,0,26203
S,843,3372020,371,0,0,29183
S,844,3376024,341,0,0,33202
S,845,3380020,327,0,0,37133
S,846,3384020,350,0,0,41207
S,847,3388020,376,0,0,45168
S,848,3392020,371,0,0,49156
S,849,3396020,340,0,0,54146
S,850,3400024,328,0,0,58225
S,851,3404020,351,0,0,62155
S,852,3408020,378,0,0,654
S,853,3412020,373,0,0,4640
S,854,3416020,343,0,0,7649
S,855,3420020,331,0,0,11612
S,856,3424024,355,0,0,15639
S,857,3428020,381,0,0,19620
S,858,3432020,375,0,0,23629
S,859,3436020,345,0,0,28610
S,860,3440020,333,0,0,32689
S,861,3444020,357,0,0,36664
S,862,3448024,383,0,0,40653
S,863,3452020,377,0,0,44646
S,864,3456020,346,0,0,48666
S,865,3460020,334,0,0,51631
S,866,3464020,359,0,0,55653
S,867,3468020,385,0,0,59426
S,868,3472020,379,0,0,63679
S,869,3476020,348,0,0,2104
S,870,3480020,335,0,0,7112
S,871,3484024,357,0,0,11087
S,872,3488020,383,0,0,15158
S,873,3492024,378,0,0,19102
S,874,3496020,350,0,0,23125
S,875,3500024,339,0,0,26101
S,876,3504024,365,0,0,30124
S,877,3508020,394,0,0,34278
S,878,3512020,392,0,0,37895
S,879,3516020,362,0,0,42052
S,880,3520020,348,0,0,46093
S,881,3524020,370,0,0,51074
S,882,3528020,399,0,0,55196
S,883,3532020,395,0,0,58937
S,884,3536020,365,0,0,63160
S,885,3540020,349,0,0,1578
S,886,3544020,370,0,0,4582
S,887,3548020,396,0,0,8633
S,888,3552020,389,0,0,12767
S,889,3556024,356,0,0,16531
S,890,3560024,340,0,0,20544
S,891,3564020,358,0,0,25567
S,892,3568020,382,0,0,29600
S,893,3572024,376,0,0,33547
S,894,3576020,345,0,0,37573
S,895,3580020,331,0,0,41590
S,896,3584020,353,0,0,45763
S,897,3588020,378,0,0,48505
S,898,3592024,374,0,0,52634
S,899,3596024,344,0,0,56341
S,900,3600020,329,0,0,60527
S,901,3604020,351,0,0,64728
S,902,3608020,376,0,0,3869
S,903,3612020,373,0,0,8113
S,904,3616020,344,0,0,12275
S,905,3620020,330,0,0,15936
S,906,3624020,352,0,0,20105
S,907,3628024,378,0,0,22846
S,908,3632020,371,0,0,26972
S,909,3636024,337,0,0,31187
S,910,3640020,323,0,0,34862
S,911,3644020,360,0,0,39076
S,912,3648020,420,0,0,43031
S,913,3652020,473,0,0,48075
S,914,3656020,509,0,0,51980
S,915,3660020,555,0,0,55675
S,916,3664020,601,0,0,59758
S,917,3668020,589,0,0,63963
S,918,3672020,505,0,0,1411
S,919,3676020,406,0,0,5453
S,920,3680020,345,0,0,9709
S,921,3684020,343,0,0,13378
S,922,3688020,364,0,0,17562
S,923,3692020,362,0,0,22333
S,924,3696024,332,0,0,26480
S,925,3700020,316,0,0,30637
S,926,3704020,335,0,0,34365
S,927,3708020,361,0,0,38586
S,928,3712020,357,0,0,42729
S,929,3716020,327,0,0,45418
S,930,3720020,309,0,0,49659
S,931,3724020,330,0,0,53285
S,932,3728020,357,0,0,57453
S,933,3732020,355,0,0,61642
S,934,3736020,327,0,0,780
S,935,3740020,313,0,0,5075
S,936,3744020,335,0,0,9162
S,937,3748020,364,0,0,12872
S,938,3752020,362,0,0,17069
S,939,3756020,333,0,0,19755
S,940,3760020,318,0,0,23871
S,941,3764020,339,0,0,28147
S,942,3768020,367,0,0,31788
S,943,3772020,366,0,0,35980
S,944,3776020,337,0,0,40140
S,945,3780024,322,0,0,44914
S,946,3784024,343,0,0,49028
S,947,3788020,372,0,0,52746
S,948,3792020,371,0,0,56938
S,949,3796020,343,0,0,61167
S,950,3800020,328,0,0,63763
S,951,3804020,350,0,0,2471
S,952,3808020,378,0,0,6636
S,953,3812020,378,0,0,10317
S,954,3816020,350,0,0,14474
S,955,3820020,335,0,0,19258
S,956,3824020,356,0,0,23414
S,957,3828020,384,0,0,27443
S,958,3832020,383,0,0,31279
S,959,3836024,356,0,0,35481
S,960,3840024,342,0,0,39604
S,961,3844020,364,0,0,42275
S,962,3848020,392,0,0,46372
S,963,3852020,392,0,0,50309
S,964,3856020,365,0,0,54279
S,965,3860024,350,0,0,58521
S,966,3864020,371,0,0,63323
S,967,3868020,402,0,0,1818
S,968,3872020,402,0,0,6005
S,969,3876020,374,0,0,9776
S,970,3880020,359,0,0,14018
S,971,3884020,381,0,0,16761
S,972,3888020,410,0,0,20985
S,973,3892020,410,0,0,24920
S,974,3896024,382,0,0,28755
S,975,3900020,366,0,0,33006
S,976,3904020,386,0,0,36989
S,977,3908020,414,0,0,41920
S,978,3912024,412,0,0,45869
S,979,3916020,383,0,0,49763
S,980,3920020,364,0,0,53783
S,981,3924020,381,0,0,58023
S,982,3928020,406,0,0,60847
S,983,3932020,402,0,0,64778
S,984,3936020,369,0,0,3457
S,985,3940020,348,0,0,7181
S,986,3944020,363,0,0,11481
S,987,3948020,386,0,0,16273
S,988,3952020,383,0,0,20235
S,989,3956020,352,0,0,24501
S,990,3960024,331,0,0,28273
S,991,3964020,346,0,0,32461
S,992,3968020,372,0,0,36540
S,993,3972020,370,0,0,39195
S,994,3976020,341,0,0,43487
S,995,3980020,323,0,0,47208
S,996,3984020,341,0,0,51225
S,997,3988020,367,0,0,55426
S,998,3992020,366,0,0,60256
S,999,3996020,339,0,0,64508
S,1000,4000020,323,0,0,2946
S,1001,4004020,342,0,0,6710
S,1002,4008020,370,0,0,10993
S,1003,4012024,370,0,0,13660
S,1004,4016020,343,0,0,17682
S,1005,4020020,326,0,0,21922
S,1006,4024020,345,0,0,25694
S,1007,4028020,373,0,0,29907
S,1008,4032020,374,0,0,33967
S,1009,4036020,347,0,0,38691
S,1010,4040020,329,0,0,42962
S,1011,4044024,347,0,0,46701
S,1012,4048020,376,0,0,50725
S,1013,4052020,377,0,0,54917
S,1014,4056020,350,0,0,57665
S,1015,4060020,332,0,0,61938
S,1016,4064020,350,0,0,396
S,1017,4068020,378,0,0,4105
S,1018,4072020,379,0,0,8427
S,1019,4076020,350,0,0,13167
S,1020,4080020,332,0,0,17178
S,1021,4084020,350,0,0,21417
S,1022,4088020,379,0,0,25199
S,1023,4092024,378,0,0,29379
S,1024,4096020,350,0,0,34164
S,1025,4100020,332,0,0,35527
S,1026,4104020,349,0,0,39477
S,1027,4108020,377,0,0,43952
S,1028,4112020,378,0,0,48084
S,1029,4116024,349,0,0,52062
S,1030,4120020,331,0,0,55463
S,1031,4124020,347,0,0,59414
S,1032,4128020,376,0,0,63578
S,1033,4132020,377,0,0,2555
S,1034,4136020,349,0,0,6460
S,1035,4140020,330,0,0,11914
S,1036,4144020,347,0,0,16124
S,1037,4148024,375,0,0,20093
S,1038,4152020,378,0,0,24479
S,1039,4156020,352,0,0,28452
S,1040,4160020,333,0,0,32630
S,1041,4164020,349,0,0,36039
S,1042,4168024,377,0,0,39948
S,1043,4172020,378,0,0,44450
S,1044,4176020,351,0,0,48608
S,1045,4180020,332,0,0,52562
S,1046,4184020,349,0,0,53920
S,1047,4188020,377,0,0,57893
S,1048,4192020,380,0,0,62031
S,1049,4196020,353,0,0,908
S,1050,4200020,334,0,0,4928
S,1051,4204020,350,0,0,8433
S,1052,4208020,379,0,0,12467
S,1053,4212020,381,0,0,16404
S,1054,4216024,354,0,0,20964
S,1055,4220020,334,0,0,24933
S,1056,4224020,350,0,0,28970
S,1057,4228020,379,0,0,34478
S,1058,4232020,383,0,0,38473
S,1059,4236020,355,0,0,42996
S,1060,4240020,335,0,0,47039
S,1061,4244020,351,0,0,50958
S,1062,4248020,380,0,0,54478
S,1063,4252020,382,0,0,58477
S,1064,4256020,354,0,0,62494
S,1065,4260020,334,0,0,1426
S,1066,4264020,349,0,0,5474
S,1067,4268020,379,0,0,6885
S,1068,4272020,383,0,0,10886
S,1069,4276024,357,0,0,14897
S,1070,4280020,338,0,0,19433
S,1071,4284020,353,0,0,23419
S,1072,4288020,382,0,0,27419
S,1073,4292020,384,0,0,30788
S,1074,4296020,358,0,0,34881
S,1075,4300020,338,0,0,39380
S,1076,4304020,353,0,0,43392
S,1077,4308020,382,0,0,47422
S,1078,4312020,385,0,0,52770
S,1079,4316020,358,0,0,56932
S,1080,4320020,337,0,0,60988
S,1081,4324020,351,0,0,65427
S,1082,4328020,380,0,0,3920
S,1083,4332024,385,0,0,7168
S,1084,4336024,362,0,0,11404
S,1085,4340020,344,0,0,15379
S,1086,4344020,362,0,0,19906
S,1087,4348020,392,0,0,23937
S,1088,4352020,397,0,0,28059
S,1089,4356024,370,0,0,29385
S,1090,4360020,349,0,0,33289
S,1091,4364020,366,0,0,37787
S,1092,4368020,398,0,0,41756
S,1093,4372020,404,0,0,45991
S,1094,4376020,377,0,0,49321
S,1095,4380020,352,0,0,53265
S,1096,4384020,363,0,0,57461
S,1097,4388020,389,0,0,61754
S,1098,4392020,392,0,0,469
S,1099,4396020,365,0,0,5777
S,1100,4400020,342,0,0,9933
S,1101,4404024,353,0,0,13911
S,1102,4408020,378,0,0,18339
S,1103,4412020,380,0,0,22276
S,1104,4416020,353,0,0,26470
S,1105,4420020,332,0,0,29930
S,1106,4424020,346,0,0,33823
S,1107,4428020,376,0,0,38300
S,1108,4432020,381,0,0,42494
S,1109,4436020,354,0,0,46400
S,1110,4440020,332,0,0,47757
S,1111,4444020,345,0,0,51769
S,1112,4448020,374,0,0,55929
S,1113,4452020,380,0,0,60370
S,1114,4456024,356,0,0,64293
S,1115,4460020,335,0,0,2212
S,1116,4464020,346,0,0,6358
S,1117,4468020,372,0,0,10329
S,1118,4472020,372,0,0,14778
S,1119,4476020,347,0,0,18740
S,1120,4480024,341,0,0,22889
S,1121,4484020,388,0,0,28181
S,1122,4488024,472,0,0,32422
S,1123,4492020,543,0,0,36044
S,1124,4496020,578,0,0,40182
S,1125,4500020,584,0,0,44125
S,1126,4504020,560,0,0,49094
S,1127,4508020,508,0,0,52395
S,1128,4512020,444,0,0,56452
S,1129,4516024,372,0,0,60897
S,1130,4520020,326,0,0,64828
S,1131,4524020,333,0,0,663
S,1132,4528020,362,0,0,4823
S,1133,4532020,369,0,0,8813
S,1134,4536020,343,0,0,13224
S,1135,4540020,319,0,0,17249
S,1136,4544020,329,0,0,21352
S,1137,4548020,356,0,0,24804
S,1138,4552020,361,0,0,28682
S,1139,4556020,338,0,0,33168
S,1140,4560020,317,0,0,37272
S,1141,4564020,330,0,0,41294
S,1142,4568020,358,0,0,46721
S,1143,4572020,365,0,0,50731
S,1144,4576024,340,0,0,54897
S,1145,4580020,320,0,0,59336
S,1146,4584020,332,0,0,63271
S,1147,4588020,360,0,0,1185
S,1148,4592020,367,0,0,5313
S,1149,4596024,345,0,0,9306
S,1150,4600020,323,0,0,13743
S,1151,4604020,336,0,0,17693
S,1152,4608020,364,0,0,21950
S,1153,4612020,371,0,0,23040
S,1154,4616020,348,0,0,27340
S,1155,4620020,328,0,0,31609
S,1156,4624020,340,0,0,35586
S,1157,4628020,370,0,0,39813
S,1158,4632020,378,0,0,43118
S,1159,4636020,357,0,0,47312
S,1160,4640020,336,0,0,51338
S,1161,4644020,348,0,0,55591
S,1162,4648020,376,0,0,59872
S,1163,4652020,383,0,0,65094
S,1164,4656020,360,0,0,3639
S,1165,4660024,340,0,0,7846
S,1166,4664024,352,0,0,12145
S,1167,4668020,382,0,0,16322
S,1168,4672020,391,0,0,20292
S,1169,4676020,370,0,0,23568
S,1170,4680020,349,0,0,27868
S,1171,4684020,360,0,0,32072
S,1172,4688020,389,0,0,36290
S,1173,4692020,397,0,0,40299
S,1174,4696020,376,0,0,41597
S,1175,4700020,356,0,0,45760
S,1176,4704020,369,0,0,49850
S,1177,4708020,399,0,0,54245
S,1178,4712024,406,0,0,58131
S,1179,4716020,385,0,0,61609
S,1180,4720020,365,0,0,45
S,1181,4724020,377,0,0,4248
S,1182,4728024,406,0,0,8600
S,1183,4732020,415,0,0,12604
S,1184,4736024,392,0,0,16760
S,1185,4740024,371,0,0,22050
S,1186,4744020,380,0,0,26306
S,1187,4748020,408,0,0,30599
S,1188,4752020,416,0,0,34776
S,1189,4756020,394,0,0,38739
S,1190,4760020,370,0,0,42056
S,1191,4764020,376,0,0,46307
S,1192,4768020,400,0,0,50276
S,1193,4772020,402,0,0,54727
S,1194,4776020,374,0,0,58816
S,1195,4780020,348,0,0,59979
S,1196,4784024,353,0,0,64029
S,1197,4788020,376,0,0,2728
S,1198,4792020,381,0,0,6990
S,1199,4796020,357,0,0,11255
S,1200,4800020,332,0,0,15265
S,1201,4804024,339,0,0,18451
S,1202,4808020,364,0,0,22723
S,1203,4812020,370,0,0,27004
S,1204,4816020,347,0,0,31026
S,1205,4820020,325,0,0,35213
S,1206,4824020,335,0,0,40548
S,1207,4828020,360,0,0,44770
S,1208,4832020,366,0,0,48779
S,1209,4836020,344,0,0,53020
S,1210,4840020,324,0,0,57315
S,1211,4844020,334,0,0,60488
S,1212,4848020,361,0,0,64520
S,1213,4852020,368,0,0,3251
S,1214,4856020,347,0,0,7547
S,1215,4860020,327,0,0,11718
S,1216,4864020,337,0,0,15823
S,1217,4868024,364,0,0,16991
S,1218,4872020,373,0,0,21161
S,1219,4876020,353,0,0,25372
S,1220,4880020,331,0,0,29521
S,1221,4884020,340,0,0,33775
S,1222,4888020,366,0,0,36918
S,1223,4892020,374,0,0,41103
S,1224,4896020,354,0,0,45300
S,1225,4900020,332,0,0,49531
S,1226,4904020,340,0,0,53632
S,1227,4908020,367,0,0,58906
S,1228,4912020,375,0,0,63077
S,1229,4916020,355,0,0,1745
S,1230,4920024,333,0,0,5904
S,1231,4924020,341,0,0,10149
S,1232,4928020,368,0,0,14335
S,1233,4932024,376,0,0,17498
S,1234,4936020,355,0,0,21678
S,1235,4940020,334,0,0,25890
S,1236,4944020,343,0,0,30044
S,1237,4948020,369,0,0,34267
S,1238,4952020,377,0,0,35376
S,1239,4956020,356,0,0,39564
S,1240,4960024,335,0,0,43716
S,1241,4964020,343,0,0,47985
S,1242,4968020,370,0,0,52151
S,1243,4972020,378,0,0,55326
S,1244,4976020,357,0,0,59494
S,1245,4980020,334,0,0,63724
S,1246,4984020,341,0,0,2323
S,1247,4988020,367,0,0,6536
S,1248,4992020,378,0,0,10690
S,1249,4996020,358,0,0,15999
S,1250,5000020,336,0,0,20138
S,1251,5004020,343,0,0,24332
S,1252,5008020,370,0,0,28494
S,1253,5012020,379,0,0,32742
S,1254,5016020,360,0,0,35862
S,1255,5020020,337,0,0,40078
S,1256,5024020,344,0,0,44264
S,1257,5028020,370,0,0,48483
S,1258,5032020,380,0,0,52622
S,1259,5036020,361,0,0,53818
S,1260,5040020,339,0,0,57959
S,1261,5044020,345,0,0,62156
S,1262,5048020,370,0,0,773
S,1263,5052020,379,0,0,5037
S,1264,5056020,361,0,0,9152
S,1265,5060020,338,0,0,12378
S,1266,5064020,345,0,0,16562
S,1267,5068020,372,0,0,20798
S,1268,5072020,383,0,0,24914
S,1269,5076024,364,0,0,29164
S,1270,5080020,342,0,0,34361
S,1271,5084020,349,0,0,38547
S,1272,5088020,376,0,0,42713
S,1273,5092020,384,0,0,46976
S,1274,5096020,364,0,0,51087
S,1275,5100024,341,0,0,54299
S,1276,5104020,349,0,0,58488
S,1277,5108020,376,0,0,62716
S,1278,5112024,385,0,0,1513
S,1279,5116020,365,0,0,5544
S,1280,5120024,343,0,0,9217
S,1281,5124020,348,0,0,11175
S,1282,5128020,374,0,0,15214
S,1283,5132020,384,0,0,19001
S,1284,5136020,365,0,0,23219
S,1285,5140020,343,0,0,27176
S,1286,5144020,351,0,0,31171
S,1287,5148020,379,0,0,35142
S,1288,5152020,393,0,0,39387
S,1289,5156024,376,0,0,43143
S,1290,5160020,354,0,0,47218
S,1291,5164020,360,0,0,53209
S,1292,5168020,387,0,0,57173
S,1293,5172020,399,0,0,61432
S,1294,5176020,381,0,0,65257
S,1295,5180020,360,0,0,3676
S,1296,5184020,366,0,0,7717
S,1297,5188020,392,0,0,11618
S,1298,5192024,400,0,0,15765
S,1299,5196024,377,0,0,19677
S,1300,5200020,352,0,0,23727
S,1301,5204020,356,0,0,27658
S,1302,5208020,380,0,0,29681
S,1303,5212020,388,0,0,33704
S,1304,5216020,366,0,0,37677
S,1305,5220020,339,0,0,41649
S,1306,5224020,344,0,0,45657
S,1307,5228020,370,0,0,49618
S,1308,5232020,382,0,0,53689
S,1309,5236020,364,0,0,57610
S,1310,5240020,341,0,0,61648
S,1311,5244020,345,0,0,98
S,1312,5248020,371,0,0,4119
S,1313,5252020,381,0,0,10168
S,1314,5256020,362,0,0,14156
S,1315,5260020,338,0,0,18133
S,1316,5264020,342,0,0,22198
S,1317,5268020,370,0,0,26163
S,1318,5272020,382,0,0,30172
S,1319,5276020,361,0,0,34154
S,1320,5280020,330,0,0,38182
S,1321,5284024,334,0,0,42127
S,1322,5288020,373,0,0,46171
S,1323,5292020,419,0,0,47916
S,1324,5296020,456,0,0,52000
S,1325,5300020,498,0,0,56251
S,1326,5304020,561,0,0,59803
S,1327,5308020,619,0,0,63840
S,1328,5312020,601,0,0,2348
S,1329,5316020,503,0,0,6435
S,1330,5320024,402,0,0,10665
S,1331,5324020,356,0,0,14578
S,1332,5328020,356,0,0,18581
S,1333,5332020,362,0,0,22586
S,1334,5336020,345,0,0,28650
S,1335,5340020,322,0,0,32592
S,1336,5344020,325,0,0,36664
S,1337,5348020,350,0,0,40578
S,1338,5352020,361,0,0,44630
S,1339,5356020,341,0,0,48587
S,1340,5360020,317,0,0,52676
S,1341,5364020,322,0,0,56602
S,1342,5368020,349,0,0,60646
S,1343,5372020,363,0,0,64625
S,1344,5376020,344,0,0,3166
S,1345,5380020,321,0,0,5094
S,1346,5384020,325,0,0,8961
S,1347,5388020,353,0,0,12932
S,1348,5392020,367,0,0,17133
S,1349,5396020,350,0,0,21117
S,1350,5400020,326,0,0,24966
S,1351,5404020,331,0,0,28970
S,1352,5408020,359,0,0,33129
S,1353,5412020,373,0,0,37082
S,1354,5416020,355,0,0,41007
S,1355,5420020,330,0,0,47015
S,1356,5424020,334,0,0,51140
S,1357,5428020,363,0,0,55104
S,1358,5432020,377,0,0,59057
S,1359,5436020,359,0,0,62990
S,1360,5440024,334,0,0,1621
S,1361,5444020,339,0,0,5605
S,1362,5448020,366,0,0,9531
S,1363,5452020,381,0,0,13449
S,1364,5456020,364,0,0,17663
S,1365,5460020,340,0,0,21606
S,1366,5464020,343,0,0,23430
S,1367,5468020,371,0,0,27395
S,1368,5472020,386,0,0,31645
S,1369,5476020,370,0,0,35532
S,1370,5480020,345,0,0,39428
S,1371,5484020,349,0,0,43425
S,1372,5488020,377,0,0,47586
S,1373,5492020,393,0,0,51635
S,1374,5496020,378,0,0,55459
S,1375,5500020,355,0,0,59419
S,1376,5504024,359,0,0,63564
S,1377,5508020,389,0,0,3844
S,1378,5512020,404,0,0,8182
S,1379,5516024,389,0,0,11850
S,1380,5520020,364,0,0,16072
S,1381,5524020,369,0,0,20084
S,1382,5528020,398,0,0,23912
S,1383,5532020,414,0,0,28121
S,1384,5536020,398,0,0,32166
S,1385,5540024,373,0,0,36080
S,1386,5544020,376,0,0,39954
S,1387,5548020,403,0,0,41816
S,1388,5552020,418,0,0,45838
S,1389,5556020,402,0,0,50079
S,1390,5560020,377,0,0,53911
S,1391,5564020,378,0,0,57909
S,1392,5568024,403,0,0,62127
S,1393,5572020,415,0,0,271
S,1394,5576020,394,0,0,4601
S,1395,5580024,363,0,0,8373
S,1396,5584020,361,0,0,12508
S,1397,5588020,384,0,0,16532
S,1398,5592020,394,0,0,22397
S,1399,5596020,374,0,0,26400
S,1400,5600020,345,0,0,30560
S,1401,5604020,343,0,0,34511
S,1402,5608020,367,0,0,38420
S,1403,5612020,378,0,0,42400
S,1404,5616020,359,0,0,46554
S,1405,5620020,331,0,0,50519
S,1406,5624020,331,0,0,54452
S,1407,5628020,357,0,0,58427
S,1408,5632020,371,0,0,62642
S,1409,5636020,354,0,0,64258
S,1410,5640024,328,0,0,3012
S,1411,5644024,329,0,0,6756
S,1412,5648020,356,0,0,10786
S,1413,5652020,372,0,0,14995
S,1414,5656020,356,0,0,18784
S,1415,5660020,330,0,0,23023
S,1416,5664020,332,0,0,27014
S,1417,5668024,360,0,0,30735
S,1418,5672020,376,0,0,35056
S,1419,5676020,359,0,0,40782
S,1420,5680020,333,0,0,44803
S,1421,5684020,335,0,0,49056
S,1422,5688020,362,0,0,52838
S,1423,5692020,377,0,0,57044
S,1424,5696020,361,0,0,61115
S,1425,5700020,335,0,0,64828
S,1426,5704020,335,0,0,3550
S,1427,5708024,362,0,0,7254
S,1428,5712020,377,0,0,11310
S,1429,5716020,361,0,0,15519
S,1430,5720020,334,0,0,17243
S,1431,5724020,334,0,0,21498
S,1432,5728020,361,0,0,25522
S,1433,5732020,377,0,0,29187
S,1434,5736024,362,0,0,33535
S,1435,5740020,336,0,0,37224
S,1436,5744020,335,0,0,41232
S,1437,5748020,362,0,0,45460
S,1438,5752020,377,0,0,49252
S,1439,5756024,362,0,0,53466
S,1440,5760024,335,0,0,57504
S,1441,5764020,334,0,0,63244
S,1442,5768020,361,0,0,1991
S,1443,5772020,377,0,0,5750
S,1444,5776020,362,0,0,9730
S,1445,5780020,335,0,0,13958
S,1446,5784020,334,0,0,17764
S,1447,5788020,360,0,0,21987
S,1448,5792020,376,0,0,26012
S,1449,5796020,362,0,0,29743
S,1450,5800020,336,0,0,34038
S,1451,5804020,335,0,0,35656
S,1452,5808020,362,0,0,39690
S,1453,5812020,379,0,0,43962
S,1454,5816020,365,0,0,47695
S,1455,5820020,338,0,0,51921
S,1456,5824020,337,0,0,55981
S,1457,5828020,363,0,0,59702
S,1458,5832020,380,0,0,63938
S,1459,5836020,366,0,0,2160
S,1460,5840020,339,0,0,6186
S,1461,5844020,339,0,0,10379
S,1462,5848020,365,0,0,16214
S,1463,5852020,381,0,0,20455
S,1464,5856020,366,0,0,24475
S,1465,5860020,339,0,0,28167
S,1466,5864020,337,0,0,32486
S,1467,5868020,364,0,0,36218
S,1468,5872020,381,0,0,40204
S,1469,5876020,366,0,0,44478
S,1470,5880020,338,0,0,48225
S,1471,5884020,338,0,0,52416
S,1472,5888024,366,0,0,56559
S,1473,5892020,383,0,0,58195
S,1474,5896020,367,0,0,62368
S,1475,5900020,338,0,0,575
S,1476,5904020,337,0,0,4699
S,1477,5908020,364,0,0,8903
S,1478,5912020,381,0,0,12597
S,1479,5916020,365,0,0,16772
S,1480,5920020,338,0,0,20948
S,1481,5924020,336,0,0,24695
S,1482,5928020,364,0,0,28840
S,1483,5932020,381,0,0,34584
S,1484,5936020,366,0,0,38764
S,1485,5940020,339,0,0,42992
S,1486,5944020,336,0,0,46608
S,1487,5948020,362,0,0,50827
S,1488,5952020,380,0,0,55010
S,1489,5956020,367,0,0,58704
S,1490,5960020,342,0,0,62858
S,1491,5964020,343,0,0,1067
S,1492,5968024,373,0,0,5218
S,1493,5972020,394,0,0,9264
S,1494,5976020,380,0,0,11045
S,1495,5980020,351,0,0,15271
S,1496,5984020,348,0,0,19403
S,1497,5988020,377,0,0,23119
S,1498,5992020,397,0,0,27224
S,1499,5996020,385,0,0,31221
S,1500,6000020,358,0,0,35189
S,1501,6004020,353,0,0,39379
S,1502,6008020,377,0,0,43048
S,1503,6012020,391,0,0,47223
S,1504,6016020,375,0,0,51416
S,1505,6020020,345,0,0,57175
S,1506,6024020,340,0,0,61369
S,1507,6028020,363,0,0,65063
S,1508,6032020,377,0,0,3669
S,1509,6036020,361,0,0,7908
S,1510,6040020,333,0,0,11555
S,1511,6044020,330,0,0,15749
S,1512,6048020,356,0,0,19908
S,1513,6052020,374,0,0,23671
S,1514,6056024,360,0,0,27782
S,1515,6060020,334,0,0,29453
S,1516,6064020,332,0,0,33640
S,1517,6068020,357,0,0,37856
S,1518,6072020,374,0,0,41488
S,1519,6076020,361,0,0,45742
S,1520,6080020,335,0,0,49911
S,1521,6084020,332,0,0,53589
S,1522,6088020,357,0,0,57759
S,1523,6092020,372,0,0,61487
S,1524,6096020,353,0,0,92
S,1525,6100020,324,0,0,4312
S,1526,6104020,330,0,0,10037
S,1527,6108020,381,0,0,14243
S,1528,6112020,445,0,0,18188
S,1529,6116020,497,0,0,22241
S,1530,6120020,536,0,0,26091
S,1531,6124020,576,0,0,30226
S,1532,6128020,582,0,0,34419
S,1533,6132020,526,0,0,38554
S,1534,6136020,435,0,0,42180
S,1535,6140020,356,0,0,46258
S,1536,6144020,321,0,0,50952
S,1537,6148020,333,0,0,51365
S,1538,6152024,347,0,0,55388
S,1539,6156020,335,0,0,59877
S,1540,6160020,310,0,0,63995
S,1541,6164024,306,0,0,2385
S,1542,6168020,327,0,0,6859
S,1543,6172024,341,0,0,10868
S,1544,6176020,329,0,0,14859
S,1545,6180020,308,0,0,19415
S,1546,6184020,306,0,0,23346
S,1547,6188020,330,0,0,27883
S,1548,6192020,345,0,0,31903
S,1549,6196020,335,0,0,35880
S,1550,6200020,312,0,0,40380
S,1551,6204020,312,0,0,44317
S,1552,6208020,335,0,0,48405
S,1553,6212020,351,0,0,52900
S,1554,6216020,340,0,0,56908
S,1555,6220020,319,0,0,61318
S,1556,6224020,318,0,0,65504
S,1557,6228024,342,0,0,3876
S,1558,6232020,357,0,0,4344
S,1559,6236020,346,0,0,8294
S,1560,6240020,324,0,0,12311
S,1561,6244020,323,0,0,16817
S,1562,6248020,346,0,0,20811
S,1563,6252020,361,0,0,25305
S,1564,6256020,351,0,0,29320
S,1565,6260020,329,0,0,33343
S,1566,6264020,327,0,0,37842
S,1567,6268020,349,0,0,41833
S,1568,6272020,363,0,0,45824
S,1569,6276020,352,0,0,50346
S,1570,6280020,332,0,0,54373
S,1571,6284020,331,0,0,58819
S,1572,6288024,354,0,0,62849
S,1573,6292020,369,0,0,1280
S,1574,6296020,360,0,0,5882
S,1575,6300020,341,0,0,9830
S,1576,6304020,342,0,0,13834
S,1577,6308020,365,0,0,18320
S,1578,6312020,380,0,0,22370
S,1579,6316020,372,0,0,22731
S,1580,6320020,352,0,0,26808
S,1581,6324020,353,0,0,30744
S,1582,6328020,376,0,0,35298
S,1583,6332024,392,0,0,39359
S,1584,6336020,384,0,0,43460
S,1585,6340020,365,0,0,47752
S,1586,6344024,364,0,0,51814
S,1587,6348020,387,0,0,56100
S,1588,6352024,404,0,0,60248
S,1589,6356020,395,0,0,64490
S,1590,6360020,375,0,0,3316
S,1591,6364020,374,0,0,7252
S,1592,6368020,396,0,0,11457
S,1593,6372020,410,0,0,15734
S,1594,6376024,400,0,0,19859
S,1595,6380020,378,0,0,24276
S,1596,6384020,374,0,0,28351
S,1597,6388020,394,0,0,32482
S,1598,6392020,406,0,0,36637
S,1599,6396020,394,0,0,40864
S,1600,6400020,369,0,0,44868
S,1601,6404020,362,0,0,45310
S,1602,6408024,380,0,0,49159
S,1603,6412020,392,0,0,53598
S,1604,6416020,380,0,0,57805
S,1605,6420020,355,0,0,61811
S,1606,6424020,349,0,0,685
S,1607,6428020,368,0,0,4641
S,1608,6432020,383,0,0,8769
S,1609,6436020,373,0,0,13290
S,1610,6440020,350,0,0,17186
S,1611,6444020,345,0,0,21636
S,1612,6448020,366,0,0,25812
S,1613,6452024,383,0,0,29800
S,1614,6456020,374,0,0,34190
S,1615,6460020,351,0,0,38150
S,1616,6464020,346,0,0,42364
S,1617,6468020,368,0,0,46839
S,1618,6472020,387,0,0,50919
S,1619,6476020,380,0,0,55225
S,1620,6480020,357,0,0,59335
S,1621,6484020,351,0,0,63324
S,1622,6488020,374,0,0,63638
S,1623,6492020,394,0,0,2250
S,1624,6496020,387,0,0,6316
S,1625,6500020,363,0,0,10725
S,1626,6504020,357,0,0,14600
S,1627,6508020,380,0,0,19120
S,1628,6512020,403,0,0,23096
S,1629,6516020,397,0,0,27271
S,1630,6520020,371,0,0,31642
S,1631,6524020,361,0,0,35617
S,1632,6528024,384,0,0,39835
S,1633,6532020,407,0,0,44065
S,1634,6536020,401,0,0,48324
S,1635,6540020,375,0,0,52611
S,1636,6544020,366,0,0,56829
S,1637,6548020,391,0,0,60853
S,1638,6552024,416,0,0,65149
S,1639,6556020,411,0,0,3820
S,1640,6560020,381,0,0,7781
S,1641,6564020,369,0,0,12232
S,1642,6568024,393,0,0,16351
S,1643,6572020,418,0,0,16473
S,1644,6576020,412,0,0,20480
S,1645,6580020,379,0,0,24646
S,1646,6584020,364,0,0,29106
S,1647,6588020,386,0,0,33277
S,1648,6592020,412,0,0,37276
S,1649,6596024,407,0,0,41530
S,1650,6600024,373,0,0,45627
S,1651,6604024,357,0,0,50058
S,1652,6608020,377,0,0,54269
S,1653,6612020,402,0,0,58295
S,1654,6616020,395,0,0,62541
S,1655,6620020,360,0,0,1038
S,1656,6624024,342,0,0,5203
S,1657,6628020,361,0,0,9665
S,1658,6632024,385,0,0,13766
S,1659,6636020,377,0,0,18067
S,1660,6640020,341,0,0,22232
S,1661,6644020,321,0,0,26221
S,1662,6648024,340,0,0,30615
S,1663,6652020,362,0,0,34564
S,1664,6656020,352,0,0,38801
S,1665,6660020,317,0,0,39021
S,1666,6664020,297,0,0,43162
S,1667,6668020,315,0,0,47401
S,1668,6672020,339,0,0,51494
S,1669,6676020,331,0,0,55711
S,1670,6680020,296,0,0,59935
S,1671,6684020,275,0,0,64133
S,1672,6688024,294,0,0,2768
S,1673,6692020,319,0,0,7012
S,1674,6696020,313,0,0,11137
S,1675,6700020,280,0,0,15361
S,1676,6704024,263,0,0,19573
S,1677,6708020,282,0,0,23749
S,1678,6712020,308,0,0,27912
S,1679,6716020,304,0,0,32173
S,1680,6720020,272,0,0,36338
S,1681,6724020,255,0,0,40892
S,1682,6728020,275,0,0,44723
S,1683,6732024,302,0,0,48931
S,1684,6736020,298,0,0,53068
S,1685,6740020,267,0,0,57292
S,1686,6744020,249,0,0,57821
S,1687,6748020,271,0,0,61578
S,1688,6752020,300,0,0,199
S,1689,6756020,299,0,0,4449
S,1690,6760020,269,0,0,8612
S,1691,6764020,252,0,0,13300
S,1692,6768020,272,0,0,17023
S,1693,6772024,301,0,0,21231
S,1694,6776020,297,0,0,25348
S,1695,6780020,267,0,0,29575
S,1696,6784020,250,0,0,33321
S,1697,6788020,272,0,0,37986
S,1698,6792020,305,0,0,42144
S,1699,6796020,306,0,0,46338
S,1700,6800020,280,0,0,50511
S,1701,6804020,265,0,0,54783
S,1702,6808020,286,0,0,58891
S,1703,6812020,315,0,0,63119
S,1704,6816020,316,0,0,1768
S,1705,6820020,287,0,0,5994
S,1706,6824020,272,0,0,10118
S,1707,6828020,293,0,0,10258
S,1708,6832020,320,0,0,14352
S,1709,6836020,318,0,0,18639
S,1710,6840020,287,0,0,22797
S,1711,6844020,270,0,0,27069
S,1712,6848020,288,0,0,31212
S,1713,6852024,314,0,0,35419
S,1714,6856020,311,0,0,39609
S,1715,6860020,281,0,0,43830
S,1716,6864020,264,0,0,47936
S,1717,6868020,283,0,0,52210
S,1718,6872020,311,0,0,56381
S,1719,6876020,311,0,0,60572
S,1720,6880020,284,0,0,64728
S,1721,6884020,269,0,0,3433
S,1722,6888020,290,0,0,7589
S,1723,6892020,319,0,0,11801
S,1724,6896020,319,0,0,15998
S,1725,6900020,292,0,0,20164
S,1726,6904020,277,0,0,24342
S,1727,6908020,298,0,0,28552
S,1728,6912020,327,0,0,32762
S,1729,6916020,327,0,0,32859
S,1730,6920020,298,0,0,37077
S,1731,6924020,278,0,0,41288
S,1732,6928020,296,0,0,45329
S,1733,6932020,333,0,0,49621
S,1734,6936020,364,0,0,53783
S,1735,6940020,390,0,0,57948
S,1736,6944020,440,0,0,61965
S,1737,6948020,524,0,0,27
S,1738,6952020,593,0,0,4261
S,1739,6956020,576,0,0,10005
S,1740,6960020,478,0,0,13548
S,1741,6964020,386,0,0,17425
S,1742,6968020,350,0,0,21806
S,1743,6972020,346,0,0,25995
S,1744,6976020,338,0,0,30204
S,1745,6980020,315,0,0,34356
S,1746,6984020,301,0,0,38593
S,1747,6988020,319,0,0,42866
S,1748,6992020,343,0,0,46973
S,1749,6996020,344,0,0,51155
S,1750,7000020,319,0,0,51287
S,1751,7004020,304,0,0,55545
S,1752,7008024,321,0,0,59627
S,1753,7012020,348,0,0,63835
S,1754,7016020,352,0,0,2437
S,1755,7020020,330,0,0,6670
S,1756,7024020,317,0,0,10782
S,1757,7028020,334,0,0,15052
S,1758,7032020,359,0,0,19206
S,1759,7036020,363,0,0,23467
S,1760,7040020,342,0,0,27593
S,1761,7044020,329,0,0,31863
S,1762,7048020,347,0,0,35974
S,1763,7052020,373,0,0,40201
S,1764,7056020,377,0,0,44386
S,1765,7060020,357,0,0,48607
S,1766,7064020,344,0,0,52737
S,1767,7068020,363,0,0,56979
S,1768,7072020,390,0,0,60945
S,1769,7076020,395,0,0,65469
S,1770,7080020,374,0,0,4004
S,1771,7084020,361,0,0,4122
S,1772,7088024,378,0,0,8290
S,1773,7092024,404,0,0,12333
S,1774,7096020,408,0,0,16846
S,1775,7100020,387,0,0,20852
S,1776,7104020,375,0,0,25087
S,1777,7108020,393,0,0,29344
S,1778,7112020,419,0,0,33385
S,1779,7116020,424,0,0,37827
S,1780,7120020,403,0,0,41887
S,1781,7124020,390,0,0,45867
S,1782,7128020,406,0,0,50392
S,1783,7132020,433,0,0,54366
S,1784,7136024,440,0,0,58420
S,1785,7140020,424,0,0,62857
S,1786,7144020,415,0,0,1372
S,1787,7148020,435,0,0,5841
S,1788,7152020,464,0,0,9941
S,1789,7156020,473,0,0,13949
S,1790,7160020,458,0,0,18317
S,1791,7164024,449,0,0,22315
S,1792,7168020,469,0,0,26284
S,1793,7172024,497,0,0,26917
S,1794,7176020,504,0,0,31171
S,1795,7180020,488,0,0,34930
S,1796,7184020,476,0,0,38945
S,1797,7188020,491,0,0,43191
S,1798,7192024,514,0,0,47281
S,1799,7196020,517,0,0,51227
S,1800,7200020,495,0,0,56222
S,1801,7204020,479,0,0,59919
S,1802,7208020,490,0,0,64217
S,1803,7212020,509,0,0,3436
S,1804,7216024,507,0,0,7425
S,1805,7220024,481,0,0,11706
S,1806,7224020,459,0,0,15487
S,1807,7228020,465,0,0,19652
S,1808,7232020,480,0,0,23690
S,1809,7236020,475,0,0,28432
S,1810,7240020,447,0,0,32663
S,1811,7244020,423,0,0,36398
S,1812,7248020,427,0,0,40517
S,1813,7252020,441,0,0,44790
S,1814,7256020,436,0,0,45336
S,1815,7260020,409,0,0,49556
S,1816,7264020,390,0,0,53732
S,1817,7268020,397,0,0,57422
S,1818,7272024,411,0,0,61623
S,1819,7276020,410,0,0,794
S,1820,7280020,387,0,0,4964
S,1821,7284024,369,0,0,9019
S,1822,7288024,378,0,0,13011
S,1823,7292020,397,0,0,17033
S,1824,7296020,396,0,0,21207
S,1825,7300024,375,0,0,25985
S,1826,7304020,359,0,0,30078
S,1827,7308020,370,0,0,33994
S,1828,7312020,389,0,0,37978
S,1829,7316020,391,0,0,42233
S,1830,7320024,374,0,0,47079
S,1831,7324020,359,0,0,51035
S,1832,7328024,372,0,0,55083
S,1833,7332020,393,0,0,59003
S,1834,7336020,397,0,0,63132
S,1835,7340020,380,0,0,63948
S,1836,7344024,366,0,0,2474
S,1837,7348020,377,0,0,6416
S,1838,7352020,399,0,0,10245
S,1839,7356020,405,0,0,14526
S,1840,7360020,388,0,0,18640
S,1841,7364020,375,0,0,23426
S,1842,7368020,388,0,0,27538
S,1843,7372020,409,0,0,31278
S,1844,7376020,414,0,0,35406
S,1845,7380020,398,0,0,39679
S,1846,7384020,387,0,0,44305
S,1847,7388020,401,0,0,48546
S,1848,7392020,422,0,0,52730
S,1849,7396020,426,0,0,56407
S,1850,7400020,410,0,0,60548
S,1851,7404020,396,0,0,65331
S,1852,7408020,407,0,0,3918
S,1853,7412024,427,0,0,8159
S,1854,7416020,431,0,0,11828
S,1855,7420020,416,0,0,16026
S,1856,7424020,403,0,0,20150
S,1857,7428020,417,0,0,20773
S,1858,7432020,439,0,0,25040
S,1859,7436020,445,0,0,28795
S,1860,7440024,431,0,0,32770
S,1861,7444020,419,0,0,37027
S,1862,7448020,432,0,0,41811
S,1863,7452020,455,0,0,45957
S,1864,7456020,462,0,0,50147
S,1865,7460020,447,0,0,53811
S,1866,7464020,434,0,0,58077
S,1867,7468020,445,0,0,62835
S,1868,7472020,465,0,0,1403
S,1869,7476024,470,0,0,5585
S,1870,7480020,454,0,0,9262
S,1871,7484020,442,0,0,13555
S,1872,7488020,453,0,0,17651
S,1873,7492020,473,0,0,22350
S,1874,7496020,478,0,0,26538
S,1875,7500020,463,0,0,30234
S,1876,7504024,449,0,0,34431
S,1877,7508020,458,0,0,38617
S,1878,7512020,476,0,0,39212
S,1879,7516020,479,0,0,43406
S,1880,7520020,462,0,0,47600
S,1881,7524020,447,0,0,51232
S,1882,7528020,457,0,0,55477
S,1883,7532020,475,0,0,60166
S,1884,7536020,477,0,0,64359
S,1885,7540020,458,0,0,3024
S,1886,7544020,440,0,0,6721
S,1887,7548020,445,0,0,10981
S,1888,7552024,460,0,0,15047
S,1889,7556020,459,0,0,19821
S,1890,7560020,435,0,0,24054
S,1891,7564020,412,0,0,27768
S,1892,7568020,411,0,0,31768
S,1893,7572020,420,0,0,35974
S,1894,7576024,415,0,0,40786
S,1895,7580020,390,0,0,45030
S,1896,7584020,368,0,0,49023
S,1897,7588020,367,0,0,52929
S,1898,7592020,376,0,0,56885
S,1899,7596020,368,0,0,57756
S,1900,7600020,341,0,0,61918
S,1901,7604020,320,0,0,365
S,1902,7608020,325,0,0,4235
S,1903,7612020,341,0,0,8250
S,1904,7616020,340,0,0,12356
S,1905,7620020,316,0,0,17293
S,1906,7624020,288,0,0,21362
S,1907,7628020,279,0,0,25316
S,1908,7632020,281,0,0,29325
S,1909,7636020,270,0,0,33339
S,1910,7640020,240,0,0,37926
S,1911,7644020,213,0,0,42146
S,1912,7648024,208,0,0,46276
S,1913,7652020,212,0,0,50541
S,1914,7656020,201,0,0,54675
S,1915,7660024,171,0,0,58972
S,1916,7664020,143,0,0,62995
S,1917,7668024,137,0,0,1721
S,1918,7672020,148,0,0,5963
S,1919,7676020,147,0,0,10221
S,1920,7680020,123,0,0,14234
S,1921,7684020,95,0,0,14367
S,1922,7688024,89,0,0,18678
S,1923,7692024,97,0,0,22895
S,1924,7696020,92,0,0,26937
S,1925,7700020,66,0,0,31110
S,1926,7704020,42,0,0,35341
S,1927,7708024,44,0,0,39590
S,1928,7712020,58,0,0,43731
S,1929,7716020,53,0,0,47997
S,1930,7720020,26,0,0,52145
S,1931,7724020,9,0,0,56323
S,1932,7728020,36,0,0,60489
S,1933,7732024,102,0,0,64678
S,1934,7736020,172,0,0,3456
S,1935,7740020,218,0,0,7511
S,1936,7744020,246,0,0,11524
S,1937,7748024,247,0,0,16040
S,1938,7752020,204,0,0,20092
S,1939,7756020,128,0,0,24465
S,1940,7760020,50,0,0,28484
S,1941,7764020,0,0,0,32727
S,1942,7768020,0,0,0,32820
S,1943,7772020,0,0,0,37013
S,1944,7776020,7,0,0,41213
S,1945,7780024,0,0,0,45399
S,1946,7784020,0,0,0,49592
S,1947,7788024,0,0,0,53781
S,1948,7792020,18,0,0,57964
S,1949,7796024,33,0,0,62194
S,1950,7800020,27,0,0,806
S,1951,7804020,18,0,0,5006
S,1952,7808020,31,0,0,9180
S,1953,7812020,57,0,0,13403
S,1954,7816020,67,0,0,17602
S,1955,7820020,54,0,0,21782
S,1956,7824020,40,0,0,25967
S,1957,7828024,46,0,0,30148
S,1958,7832020,65,0,0,34372
S,1959,7836020,72,0,0,38636
S,1960,7840020,62,0,0,42741
S,1961,7844024,51,0,0,46933
S,1962,7848020,62,0,0,51127
S,1963,7852020,85,0,0,51325
S,1964,7856020,97,0,0,55342
S,1965,7860020,87,0,0,59577
S,1966,7864020,76,0,0,63809
S,1967,7868020,87,0,0,2548
S,1968,7872024,111,0,0,6591
S,1969,7876020,123,0,0,10758
S,1970,7880020,116,0,0,15082
S,1971,7884020,109,0,0,19282
S,1972,7888020,125,0,0,23333
S,1973,7892020,153,0,0,27488
S,1974,7896020,171,0,0,31921
S,1975,7900020,172,0,0,35863
S,1976,7904020,171,0,0,40063
S,1977,7908020,187,0,0,44494
S,1978,7912020,211,0,0,48453
S,1979,7916020,222,0,0,52969
S,1980,7920020,214,0,0,56966
S,1981,7924020,206,0,0,60991
S,1982,7928020,214,0,0,65476
S,1983,7932020,231,0,0,3925
S,1984,7936020,238,0,0,8003
S,1985,7940020,230,0,0,8426
S,1986,7944024,222,0,0,12349
S,1987,7948020,232,0,0,16806
S,1988,7952020,250,0,0,20947
S,1989,7956020,258,0,0,24714
S,1990,7960020,252,0,0,29335
S,1991,7964020,246,0,0,33340
S,1992,7968020,255,0,0,37466
S,1993,7972020,271,0,0,41483
S,1994,7976020,278,0,0,45809
S,1995,7980020,271,0,0,50505
S,1996,7984024,262,0,0,54571
S,1997,7988020,270,0,0,58766
S,1998,7992020,284,0,0,62591
S,1999,7996020,288,0,0,1249
S,2000,8000020,281,0,0,5287
S,2001,8004020,273,0,0,9998
S,2002,8008024,276,0,0,14308
S,2003,8012024,284,0,0,17997
S,2004,8016020,284,0,0,22054
S,2005,8020020,274,0,0,26249
S,2006,8024020,263,0,0,27007
S,2007,8028020,263,0,0,31198
S,2008,8032020,269,0,0,35259
S,2009,8036020,268,0,0,38939
S,2010,8040020,260,0,0,43248
S,2011,8044020,251,0,0,47790
S,2012,8048020,253,0,0,51919
S,2013,8052020,260,0,0,56215
S,2014,8056020,262,0,0,60022
S,2015,8060020,255,0,0,64302
S,2016,8064020,249,0,0,2934
S,2017,8068020,251,0,0,7381
S,2018,8072020,254,0,0,11315
S,2019,8076020,250,0,0,15766
S,2020,8080020,237,0,0,19942
S,2021,8084020,225,0,0,23883
S,2022,8088020,220,0,0,28309
S,2023,8092020,216,0,0,32304
S,2024,8096020,204,0,0,36427
S,2025,8100020,185,0,0,40863
S,2026,8104020,166,0,0,44899
S,2027,8108020,151,0,0,45299
S,2028,8112020,137,0,0,49290
S,2029,8116020,116,0,0,53462
S,2030,8120020,92,0,0,57629
S,2031,8124020,73,0,0,61865
S,2032,8128020,62,0,0,422
S,2033,8132020,53,0,0,4620
S,2034,8136020,40,0,0,8946
S,2035,8140020,23,0,0,13164
S,2036,8144020,8,0,0,17172
S,2037,8148020,2,0,0,21439
S,2038,8152024,0,0,0,25682
S,2039,8156020,0,0,0,29951
S,2040,8160020,0,0,0,33936
S,2041,8164020,0,0,0,38193
S,2042,8168020,0,0,0,42450
S,2043,8172020,0,0,0,46707
S,2044,8176024,0,0,0,50712
S,2045,8180020,0,0,0,54965
S,2046,8184024,0,0,0,59226
S,2047,8188020,0,0,0,63479
S,2048,8192020,0,0,0,2153
S,2049,8196020,0,0,0,1992
S,2050,8200020,0,0,0,5931
S,2051,8204020,6,0,0,9868
S,2052,8208020,34,0,0,14031
S,2053,8212020,58,0,0,18038
S,2054,8216024,71,0,0,21988
S,2055,8220020,78,0,0,25920
S,2056,8224020,88,0,0,30009
S,2057,8228020,103,0,0,33959
S,2058,8232020,118,0,0,37973
S,2059,8236020,130,0,0,41728
S,2060,8240024,144,0,0,45945
S,2061,8244024,160,0,0,50152
S,2062,8248020,181,0,0,53778
S,2063,8252020,202,0,0,58060
S,2064,8256020,218,0,0,62115
S,2065,8260020,235,0,0,304
S,2066,8264020,255,0,0,4551
S,2067,8268020,278,0,0,8591
S,2068,8272020,301,0,0,12755
S,2069,8276020,320,0,0,16671
S,2070,8280020,336,0,0,24300
S,2071,8284020,356,0,0,28281
S,2072,8288020,378,0,0,32264
S,2073,8292020,399,0,0,36700
S,2074,8296020,415,0,0,40879
S,2075,8300020,430,0,0,44095
S,2076,8304020,447,0,0,48201
S,2077,8308020,465,0,0,52358
S,2078,8312020,482,0,0,56662
S,2079,8316020,496,0,0,60901
S,2080,8320024,511,0,0,64953
S,2081,8324020,528,0,0,2554
S,2082,8328020,547,0,0,6442
S,2083,8332020,563,0,0,10395
S,2084,8336020,573,0,0,14578
S,2085,8340020,584,0,0,18470
S,2086,8344020,598,0,0,23515
S,2087,8348020,614,0,0,27466
S,2088,8352020,627,0,0,31536
S,2089,8356020,635,0,0,35481
S,2090,8360020,643,0,0,39554
S,2091,8364020,654,0,0,38190
S,2092,8368020,668,0,0,42331
S,2093,8372024,680,0,0,46530
S,2094,8376020,687,0,0,50218
S,2095,8380020,693,0,0,54417
S,2096,8384020,699,0,0,58592
S,2097,8388020,701,0,0,63303
S,2098,8392020,702,0,0,1880
S,2099,8396024,703,0,0,5876
S,2100,8400020,703,0,0,9887
S,2101,8404020,704,0,0,13889
S,2102,8408020,704,0,0,16802
S,2103,8412020,705,0,0,20738
S,2104,8416020,705,0,0,24941
S,2105,8420020,705,0,0,28876
S,2106,8424020,706,0,0,32812
S,2107,8428020,706,0,0,37773
S,2108,8432020,706,0,0,41962
S,2109,8436020,706,0,0,45899
S,2110,8440020,706,0,0,49832
S,2111,8444020,707,0,0,53768
S,2112,8448020,706,0,0,57878
S,2113,8452020,707,0,0,64950
S,2114,8456020,707,0,0,3412
S,2115,8460020,707,0,0,7413
S,2116,8464020,707,0,0,11410
S,2117,8468020,707,0,0,15411
S,2118,8472020,707,0,0,20432
S,2119,8476020,707,0,0,24433
S,2120,8480020,707,0,0,28446
S,2121,8484020,707,0,0,32447
S,2122,8488020,707,0,0,36444
S,2123,8492020,707,0,0,39421
S,2124,8496020,707,0,0,43418
S,2125,8500020,707,0,0,47419
S,2126,8504020,707,0,0,51416
S,2127,8508020,707,0,0,55417
S,2128,8512020,707,0,0,59398
S,2129,8516020,707,0,0,64423
S,2130,8520020,707,0,0,2887
S,2131,8524020,708,0,0,6881
S,2132,8528024,708,0,0,10890
S,2133,8532020,708,0,0,14887
S,2134,8536020,708,0,0,13764
S,2135,8540020,708,0,0,17765
S,2136,8544020,709,0,0,21771
S,2137,8548020,709,0,0,25770
S,2138,8552020,708,0,0,29768
S,2139,8556020,709,0,0,34792
S,2140,8560020,708,0,0,38798
S,2141,8564020,708,0,0,42799
S,2142,8568020,708,0,0,46796
S,2143,8572020,708,0,0,50797
S,2144,8576020,708,0,0,54834
S,2145,8580020,707,0,0,57748
S,2146,8584020,707,0,0,61815
S,2147,8588020,707,0,0,215
S,2148,8592024,707,0,0,4284
S,2149,8596020,707,0,0,8209
S,2150,8600020,707,0,0,13298
S,2151,8604020,707,0,0,17235
S,2152,8608020,706,0,0,21309
S,2153,8612020,707,0,0,25245
S,2154,8616020,706,0,0,29311
S,2155,8620020,706,0,0,36318
S,2156,8624020,706,0,0,40377
S,2157,8628020,706,0,0,44312
S,2158,8632020,706,0,0,48379
S,2159,8636020,706,0,0,52314
S,2160,8640024,706,0,0,56361
S,2161,8644020,706,0,0,61316
S,2162,8648020,706,0,0,65383
S,2163,8652020,705,0,0,3778
S,2164,8656020,705,0,0,7845
S,2165,8660020,705,0,0,11780
S,2166,8664020,705,0,0,14823
S,2167,8668020,705,0,0,18758
S,2168,8672020,705,0,0,22825
S,2169,8676020,705,0,0,26760
S,2170,8680020,705,0,0,30827
S,2171,8684020,704,0,0,35787
S,2172,8688020,704,0,0,39852
S,2173,8692020,704,0,0,43789
S,2174,8696020,704,0,0,47854
S,2175,8700020,703,0,0,51760
S,2176,8704020,703,0,0,55983
S,2177,8708020,703,0,0,54542
S,2178,8712020,703,0,0,58861
S,2179,8716024,701,0,0,62530
S,2180,8720024,700,0,0,1061
S,2181,8724020,699,0,0,5263
S,2182,8728020,700,0,0,10091
S,2183,8732020,700,0,0,14282
S,2184,8736020,697,0,0,18336
S,2185,8740020,694,0,0,22030
S,2186,8744020,692,0,0,26351
S,2187,8748020,694,0,0,29004
S,2188,8752020,694,0,0,33067
S,2189,8756020,691,0,0,37263
S,2190,8760020,687,0,0,41072
S,2191,8764020,685,0,0,45267
S,2192,8768024,687,0,0,49314
S,2193,8772020,689,0,0,54033
S,2194,8776020,684,0,0,58351
S,2195,8780020,678,0,0,62020
S,2196,8784020,675,0,0,549
S,2197,8788020,676,0,0,4739
S,2198,8792020,676,0,0,11616
S,2199,8796020,670,0,0,15867
S,2200,8800020,660,0,0,19870
S,2201,8804020,653,0,0,23590
S,2202,8808020,650,0,0,27842
S,2203,8812020,648,0,0,32609
S,2204,8816020,639,0,0,36849
S,2205,8820020,627,0,0,40796
S,2206,8824020,619,0,0,44711
S,2207,8828020,615,0,0,48650
S,2208,8832024,608,0,0,52830
S,2209,8836020,597,0,0,55750
S,2210,8840020,588,0,0,59708
S,2211,8844020,582,0,0,63639
S,2212,8848020,584,0,0,2303
S,2213,8852020,587,0,0,6237
S,2214,8856020,582,0,0,11187
S,2215,8860020,576,0,0,15124
S,2216,8864020,571,0,0,19200
S,2217,8868020,572,0,0,23206
S,2218,8872020,576,0,0,27193
S,2219,8876020,572,0,0,26084
S,2220,8880020,566,0,0,30089
S,2221,8884020,562,0,0,34092
S,2222,8888020,564,0,0,38089
S,2223,8892020,569,0,0,42085
S,2224,8896020,567,0,0,46100
S,2225,8900020,562,0,0,51120
S,2226,8904020,559,0,0,55118
S,2227,8908020,561,0,0,59121
S,2228,8912020,565,0,0,63122
S,2229,8916024,562,0,0,1591
S,2230,8920020,555,0,0,4545
S,2231,8924020,550,0,0,8557
S,2232,8928020,552,0,0,12556
S,2233,8932020,557,0,0,16552
S,2234,8936024,555,0,0,20545
S,2235,8940020,548,0,0,25571
S,2236,8944020,543,0,0,29631
S,2237,8948020,545,0,0,33568
S,2238,8952020,550,0,0,37572
S,2239,8956020,547,0,0,41568
S,2240,8960020,539,0,0,45639
S,2241,8964020,533,0,0,52712
S,2242,8968020,534,0,0,56584
S,2243,8972020,539,0,0,60580
S,2244,8976020,536,0,0,64704
S,2245,8980020,529,0,0,3177
S,2246,8984020,524,0,0,8087
S,2247,8988020,525,0,0,12087
S,2248,8992020,529,0,0,16196
S,2249,8996024,526,0,0,20214
S,2250,9000020,518,0,0,24081
S,2251,9004020,513,0,0,27063
S,2252,9008020,514,0,0,31187
S,2253,9012020,516,0,0,35188
S,2254,9016020,510,0,0,39789
S,2255,9020020,502,0,0,43972
S,2256,9024020,496,0,0,48061
S,2257,9028024,496,0,0,51216
S,2258,9032020,500,0,0,55547
S,2259,9036020,494,0,0,59712
S,2260,9040020,485,0,0,63788
S,2261,9044020,480,0,0,2443
S,2262,9048020,481,0,0,1641
S,2263,9052020,484,0,0,5837
S,2264,9056020,480,0,0,9894
S,2265,9060020,473,0,0,14142
S,2266,9064020,470,0,0,18386
S,2267,9068020,472,0,0,21629
S,2268,9072020,477,0,0,25631
S,2269,9076020,473,0,0,29882
S,2270,9080020,464,0,0,34128
S,2271,9084020,459,0,0,38378
S,2272,9088020,460,0,0,42418
S,2273,9092020,464,0,0,45583
S,2274,9096020,461,0,0,49905
S,2275,9100020,452,0,0,54105
S,2276,9104020,445,0,0,58183
S,2277,9108020,444,0,0,62439
S,2278,9112024,447,0,0,10
S,2279,9116020,443,0,0,4259
S,2280,9120020,435,0,0,8388
S,2281,9124024,429,0,0,12663
S,2282,9128020,429,0,0,16792
S,2283,9132020,431,0,0,24123
S,2284,9136020,426,0,0,28249
S,2285,9140020,416,0,0,32498
S,2286,9144020,409,0,0,36648
S,2287,9148020,409,0,0,40841
S,2288,9152020,410,0,0,45045
S,2289,9156020,405,0,0,48219
S,2290,9160020,396,0,0,52385
S,2291,9164020,388,0,0,56584
S,2292,9168020,387,0,0,60776
S,2293,9172020,389,0,0,64975
S,2294,9176020,385,0,0,2607
S,2295,9180020,378,0,0,6773
S,2296,9184020,372,0,0,10772
S,2297,9188020,371,0,0,15282
S,2298,9192020,372,0,0,19286
S,2299,9196020,367,0,0,22764
S,2300,9200020,358,0,0,26754
S,2301,9204020,352,0,0,30757
S,2302,9208020,352,0,0,35270
S,2303,9212020,353,0,0,39270
S,2304,9216020,344,0,0,43200
S,2305,9220020,331,0,0,42866
S,2306,9224020,322,0,0,47000
S,2307,9228020,320,0,0,50747
S,2308,9232020,320,0,0,54876
S,2309,9236020,310,0,0,59019
S,2310,9240024,298,0,0,62840
S,2311,9244020,290,0,0,1500
S,2312,9248020,291,0,0,5554
S,2313,9252024,295,0,0,9243
S,2314,9256020,291,0,0,13552
S,2315,9260020,284,0,0,17262
S,2316,9264020,279,0,0,21250
S,2317,9268020,281,0,0,25517
S,2318,9272020,285,0,0,29258
S,2319,9276020,283,0,0,33517
S,2320,9280024,276,0,0,37521
S,2321,9284020,272,0,0,41272
S,2322,9288020,275,0,0,45528
S,2323,9292020,280,0,0,49266
S,2324,9296020,277,0,0,53272
S,2325,9300020,271,0,0,57507
S,2326,9304020,266,0,0,65349
S,2327,9308020,263,0,0,4074
S,2328,9312020,265,0,0,8075
S,2329,9316020,272,0,0,11827
S,2330,9320020,294,0,0,16102
S,2331,9324020,341,0,0,19764
S,2332,9328020,409,0,0,23967
S,2333,9332020,479,0,0,28024
S,2334,9336020,522,0,0,32590
S,2335,9340024,503,0,0,35870
S,2336,9344020,430,0,0,39956
S,2337,9348020,356,0,0,43903
S,2338,9352020,308,0,0,48076
S,2339,9356020,274,0,0,51787
S,2340,9360020,257,0,0,55871
S,2341,9364020,255,0,0,60256
S,2342,9368024,261,0,0,63861
S,2343,9372020,268,0,0,2512
S,2344,9376020,266,0,0,6585
S,2345,9380024,260,0,0,10266
S,2346,9384020,256,0,0,14577
S,2347,9388020,258,0,0,14162
S,2348,9392020,264,0,0,18239
S,2349,9396020,262,0,0,22416
S,2350,9400020,258,0,0,26231
S,2351,9404020,254,0,0,30506
S,2352,9408020,258,0,0,34473
S,2353,9412020,264,0,0,38146
S,2354,9416020,263,0,0,42478
S,2355,9420020,258,0,0,46154
S,2356,9424020,254,0,0,50641
S,2357,9428020,257,0,0,54415
S,2358,9432020,262,0,0,58219
S,2359,9436020,260,0,0,62408
S,2360,9440020,255,0,0,579
S,2361,9444020,252,0,0,5089
S,2362,9448020,255,0,0,8961
S,2363,9452020,261,0,0,12634
S,2364,9456020,260,0,0,16700
S,2365,9460020,257,0,0,20888
S,2366,9464020,256,0,0,24698
S,2367,9468020,261,0,0,28894
S,2368,9472024,266,0,0,32962
S,2369,9476020,266,0,0,40815
S,2370,9480020,264,0,0,44942
S,2371,9484020,263,0,0,48672
S,2372,9488020,269,0,0,52813
S,2373,9492020,275,0,0,57074
S,2374,9496020,274,0,0,60688
S,2375,9500024,271,0,0,64928
S,2376,9504024,269,0,0,3532
S,2377,9508024,273,0,0,7281
S,2378,9512020,279,0,0,11416
S,2379,9516020,279,0,0,15161
S,2380,9520020,275,0,0,19290
S,2381,9524020,273,0,0,23545
S,2382,9528020,278,0,0,27165
S,2383,9532020,284,0,0,31414
S,2384,9536020,281,0,0,35532
S,2385,9540020,273,0,0,39269
S,2386,9544020,271,0,0,43416
S,2387,9548020,274,0,0,47140
S,2388,9552024,279,0,0,51274
S,2389,9556020,277,0,0,55525
S,2390,9560024,272,0,0,55055
S,2391,9564020,268,0,0,59326
S,2392,9568020,270,0,0,63443
S,2393,9572024,275,0,0,1632
S,2394,9576020,273,0,0,5773
S,2395,9580020,267,0,0,9526
S,2396,9584020,264,0,0,13650
S,2397,9588020,268,0,0,17911
S,2398,9592020,272,0,0,21512
S,2399,9596020,270,0,0,25783
S,2400,9600020,263,0,0,29921
S,2401,9604020,259,0,0,33604
S,2402,9608024,259,0,0,37803
S,2403,9612020,258,0,0,41479
S,2404,9616020,252,0,0,45982
S,2405,9620020,243,0,0,49968
S,2406,9624020,237,0,0,53453
S,2407,9628020,237,0,0,57452
S,2408,9632020,240,0,0,61470
S,2409,9636020,236,0,0,418
S,2410,9640020,231,0,0,4426
S,2411,9644020,226,0,0,12014
S,2412,9648020,228,0,0,16015
S,2413,9652024,234,0,0,20012
S,2414,9656020,235,0,0,24514
S,2415,9660020,233,0,0,28513
S,2416,9664020,232,0,0,32543
S,2417,9668020,237,0,0,36027
S,2418,9672020,245,0,0,40000
S,2419,9676020,247,0,0,44515
S,2420,9680020,246,0,0,48517
S,2421,9684020,250,0,0,52520
S,2422,9688020,260,0,0,56117
S,2423,9692020,271,0,0,60319
S,2424,9696020,276,0,0,64491
S,2425,9700020,279,0,0,2638
S,2426,9704020,285,0,0,6823
S,2427,9708020,294,0,0,10557
S,2428,9712020,308,0,0,14664
S,2429,9716020,317,0,0,18912
S,2430,9720020,321,0,0,22655
S,2431,9724020,327,0,0,26840
S,2432,9728020,352,0,0,30816
S,2433,9732020,394,0,0,30507
S,2434,9736020,429,0,0,34799
S,2435,9740020,449,0,0,38434
S,2436,9744020,458,0,0,42574
S,2437,9748020,468,0,0,46833
S,2438,9752024,479,0,0,50453
S,2439,9756020,484,0,0,54659
S,2440,9760020,487,0,0,58863
S,2441,9764020,489,0,0,62528
S,2442,9768020,496,0,0,1211
S,2443,9772020,505,0,0,4883
S,2444,9776020,504,0,0,9077
S,2445,9780020,497,0,0,13277
S,2446,9784020,489,0,0,16934
S,2447,9788020,486,0,0,21128
S,2448,9792020,485,0,0,25332
S,2449,9796020,476,0,0,29036
S,2450,9800020,461,0,0,33182
S,2451,9804020,446,0,0,36940
S,2452,9808020,437,0,0,40992
S,2453,9812020,434,0,0,45190
S,2454,9816020,425,0,0,53118
S,2455,9820020,412,0,0,57322
S,2456,9824020,401,0,0,61320
S,2457,9828024,398,0,0,65082
S,2458,9832020,397,0,0,3797
S,2459,9836020,391,0,0,7550
S,2460,9840020,380,0,0,11746
S,2461,9844020,369,0,0,15694
S,2462,9848020,366,0,0,19634
S,2463,9852020,367,0,0,23570
S,2464,9856024,362,0,0,27716
S,2465,9860020,354,0,0,31713
S,2466,9864020,345,0,0,35641
S,2467,9868020,343,0,0,39574
S,2468,9872024,346,0,0,43760
S,2469,9876020,342,0,0,47697
S,2470,9880020,333,0,0,51625
S,2471,9884020,325,0,0,55552
S,2472,9888020,323,0,0,59753
S,2473,9892020,326,0,0,63693
S,2474,9896020,323,0,0,2090
S,2475,9900024,315,0,0,2047
S,2476,9904020,307,0,0,6044
S,2477,9908020,306,0,0,10044
S,2478,9912020,309,0,0,14040
S,2479,9916024,306,0,0,18034
S,2480,9920020,298,0,0,22041
S,2481,9924020,290,0,0,26032
S,2482,9928020,287,0,0,30062
S,2483,9932020,290,0,0,34034
S,2484,9936020,289,0,0,38038
S,2485,9940020,284,0,0,41994
S,2486,9944020,280,0,0,46061
S,2487,9948020,282,0,0,49998
S,2488,9952020,288,0,0,54043
S,2489,9956020,288,0,0,58042
S,2490,9960020,283,0,0,62050
S,2491,9964020,277,0,0,450
S,2492,9968020,278,0,0,4518
S,2493,9972020,284,0,0,8461
S,2494,9976020,285,0,0,12527
S,2495,9980020,282,0,0,16457
S,2496,9984024,277,0,0,20565
S,2497,9988024,275,0,0,28658
S,2498,9992020,277,0,0,32539
S,2499,9996020,274,0,0,36541
S,2500,10000020,267,0,0,40643
S,2501,10004020,260,0,0,44653
S,2502,10008020,258,0,0,48520
S,2503,10012020,260,0,0,52527
S,2504,10016020,258,0,0,56646
S,2505,10020020,252,0,0,60697
S,2506,10024020,247,0,0,65009
S,2507,10028024,249,0,0,2643
S,2508,10032020,254,0,0,6719
S,2509,10036020,254,0,0,10910
S,2510,10040020,248,0,0,15227
S,2511,10044020,244,0,0,19414
S,2512,10048024,246,0,0,23463
S,2513,10052020,252,0,0,26624
S,2514,10056024,251,0,0,30952
S,2515,10060024,245,0,0,35143
S,2516,10064020,241,0,0,39208
S,2517,10068020,243,0,0,43403
S,2518,10072020,249,0,0,42594
S,2519,10076024,248,0,0,46798
S,2520,10080020,238,0,0,50875
S,2521,10084020,232,0,0,55068
S,2522,10088020,244,0,0,59363
S,2523,10092020,279,0,0,62881
S,2524,10096020,330,0,0,1432
S,2525,10100020,391,0,0,5620
S,2526,10104020,451,0,0,9299
S,2527,10108020,496,0,0,13505
S,2528,10112020,486,0,0,17544
S,2529,10116020,416,0,0,21359
S,2530,10120024,336,0,0,25456
S,2531,10124024,279,0,0,29334
S,2532,10128020,247,0,0,33565
S,2533,10132024,240,0,0,37815
S,2534,10136020,241,0,0,41049
S,2535,10140024,240,0,0,45301
S,2536,10144020,237,0,0,49291
S,2537,10148024,237,0,0,53542
S,2538,10152020,241,0,0,57813
S,2539,10156020,241,0,0,65140
S,2540,10160020,239,0,0,3596
S,2541,10164020,236,0,0,7854
S,2542,10168020,239,0,0,12110
S,2543,10172020,247,0,0,16375
S,2544,10176020,250,0,0,20357
S,2545,10180024,248,0,0,23594
S,2546,10184020,246,0,0,27851
S,2547,10188024,249,0,0,32105
S,2548,10192020,258,0,0,36089
S,2549,10196020,260,0,0,40030
S,2550,10200024,256,0,0,43957
S,2551,10204024,252,0,0,47848
S,2552,10208020,255,0,0,51848
S,2553,10212024,263,0,0,56029
S,2554,10216020,265,0,0,59964
S,2555,10220020,263,0,0,63891
S,2556,10224020,260,0,0,2544
S,2557,10228020,263,0,0,6482
S,2558,10232020,268,0,0,10426
S,2559,10236020,269,0,0,14362
S,2560,10240020,266,0,0,19330
S,2561,10244020,263,0,0,17454
S,2562,10248020,265,0,0,21699
S,2563,10252020,271,0,0,25956
S,2564,10256020,271,0,0,29955
S,2565,10260020,265,0,0,34212
S,2566,10264020,261,0,0,38475
S,2567,10268020,263,0,0,42728
S,2568,10272020,267,0,0,46731
S,2569,10276020,267,0,0,50986
S,2570,10280024,266,0,0,55236
S,2571,10284020,266,0,0,57449
S,2572,10288020,273,0,0,61461
S,2573,10292020,282,0,0,190
S,2574,10296020,287,0,0,4440
S,2575,10300020,286,0,0,8696
S,2576,10304020,286,0,0,12679
S,2577,10308020,290,0,0,16922
S,2578,10312020,299,0,0,21232
S,2579,10316020,303,0,0,25429
S,2580,10320020,301,0,0,29488
S,2581,10324020,301,0,0,33681
S,2582,10328020,305,0,0,40046
S,2583,10332020,313,0,0,44231
S,2584,10336020,316,0,0,48301
S,2585,10340020,314,0,0,52490
S,2586,10344020,313,0,0,56810
S,2587,10348020,317,0,0,61007
S,2588,10352024,326,0,0,65119
S,2589,10356020,328,0,0,3839
S,2590,10360020,326,0,0,7954
S,2591,10364020,322,0,0,12215
S,2592,10368020,323,0,0,16361
S,2593,10372020,326,0,0,18509
S,2594,10376020,323,0,0,22699
S,2595,10380020,312,0,0,26993
S,2596,10384020,303,0,0,30977
S,2597,10388020,301,0,0,35234
S,2598,10392020,304,0,0,39516
S,2599,10396020,300,0,0,43745
S,2600,10400024,291,0,0,47757
S,2601,10404020,284,0,0,51999
S,2602,10408020,282,0,0,56314
S,2603,10412020,284,0,0,54365
S,2604,10416020,282,0,0,58428
S,2605,10420020,277,0,0,62610
S,2606,10424020,274,0,0,1399
S,2607,10428020,276,0,0,5584
S,2608,10432020,282,0,0,9633
S,2609,10436020,282,0,0,13824
S,2610,10440020,278,0,0,18159
S,2611,10444020,275,0,0,22347
S,2612,10448024,278,0,0,26405
S,2613,10452020,284,0,0,30594
S,2614,10456020,287,0,0,32866
S,2615,10460020,284,0,0,37056
S,2616,10464020,281,0,0,41130
S,2617,10468020,284,0,0,45326
S,2618,10472020,291,0,0,49618
S,2619,10476020,292,0,0,53876
S,2620,10480020,289,0,0,57878
S,2621,10484020,287,0,0,62089
S,2622,10488020,289,0,0,875
S,2623,10492024,295,0,0,5056
S,2624,10496020,296,0,0,9180
S,2625,10500020,293,0,0,15472
S,2626,10504020,291,0,0,19605
S,2627,10508020,294,0,0,23857
S,2628,10512020,301,0,0,27997
S,2629,10516020,302,0,0,32255
S,2630,10520020,299,0,0,36377
S,2631,10524020,296,0,0,40635
S,2632,10528020,298,0,0,44758
S,2633,10532020,304,0,0,49005
S,2634,10536020,305,0,0,53135
S,2635,10540020,300,0,0,55347
S,2636,10544024,296,0,0,59484
S,2637,10548020,297,0,0,63728
S,2638,10552020,303,0,0,2324
S,2639,10556020,304,0,0,6570
S,2640,10560020,299,0,0,10702
S,2641,10564020,295,0,0,14947
S,2642,10568020,298,0,0,19085
S,2643,10572020,305,0,0,23351
S,2644,10576020,306,0,0,27475
S,2645,10580020,301,0,0,31725
S,2646,10584020,296,0,0,29707
S,2647,10588020,297,0,0,33963
S,2648,10592020,301,0,0,38080
S,2649,10596020,301,0,0,42337
S,2650,10600020,296,0,0,46471
S,2651,10604020,292,0,0,50730
S,2652,10608020,293,0,0,54860
S,2653,10612020,298,0,0,59106
S,2654,10616020,298,0,0,63233
S,2655,10620020,293,0,0,1964
S,2656,10624020,289,0,0,6135
S,2657,10628024,292,0,0,8287
S,2658,10632020,298,0,0,12478
S,2659,10636020,298,0,0,16671
S,2660,10640020,293,0,0,20855
S,2661,10644020,288,0,0,25043
S,2662,10648020,287,0,0,29199
S,2663,10652020,289,0,0,33424
S,2664,10656020,288,0,0,37630
S,2665,10660020,282,0,0,41829
S,2666,10664020,277,0,0,45961
S,2667,10668020,276,0,0,52265
S,2668,10672020,283,0,0,56385
S,2669,10676020,287,0,0,60644
S,2670,10680020,285,0,0,64773
S,2671,10684020,284,0,0,3492
S,2672,10688020,287,0,0,7640
S,2673,10692020,294,0,0,11840
S,2674,10696020,299,0,0,16046
S,2675,10700020,296,0,0,20236
S,2676,10704020,293,0,0,24422
S,2677,10708020,294,0,0,28612
S,2678,10712020,300,0,0,30765
S,2679,10716020,302,0,0,34958
S,2680,10720020,299,0,0,39140
S,2681,10724020,295,0,0,43337
S,2682,10728020,295,0,0,47530
S,2683,10732020,303,0,0,51715
S,2684,10736020,306,0,0,55929
S,2685,10740024,304,0,0,60118
S,2686,10744024,301,0,0,64296
S,2687,10748024,304,0,0,2963
S,2688,10752020,313,0,0,6921
S,2689,10756024,319,0,0,5282
S,2690,10760020,319,0,0,9293
S,2691,10764020,319,0,0,13804
S,2692,10768020,325,0,0,17905
S,2693,10772020,335,0,0,21850
S,2694,10776020,339,0,0,26277
S,2695,10780020,337,0,0,30214
S,2696,10784020,335,0,0,34423
S,2697,10788020,339,0,0,38858
S,2698,10792024,349,0,0,42795
S,2699,10796024,354,0,0,45237
S,2700,10800020,349,0,0,49377
S,2701,10804020,342,0,0,53323
S,2702,10808020,342,0,0,57768
S,2703,10812020,348,0,0,61699
S,2704,10816024,351,0,0,370
S,2705,10820020,345,0,0,4825
S,2706,10824020,338,0,0,8753
S,2707,10828020,336,0,0,13202
S,2708,10832020,341,0,0,17392
S,2709,10836024,345,0,0,21329
S,2710,10840020,344,0,0,27839
S,2711,10844020,340,0,0,31762
S,2712,10848024,341,0,0,35952
S,2713,10852020,349,0,0,40405
S,2714,10856020,354,0,0,44297
S,2715,10860020,351,0,0,48789
S,2716,10864020,347,0,0,52982
S,2717,10868020,347,0,0,56919
S,2718,10872024,355,0,0,61312
S,2719,10876020,361,0,0,65319
S,2720,10880020,358,0,0,3956
S,2721,10884024,353,0,0,6366
S,2722,10888020,351,0,0,10255
S,2723,10892020,354,0,0,14739
S,2724,10896020,354,0,0,18932
S,2725,10900020,355,0,0,22868
S,2726,10904020,370,0,0,27302
S,2727,10908020,409,0,0,31468
S,2728,10912020,475,0,0,35521
S,2729,10916020,547,0,0,39064
S,2730,10920020,603,0,0,43011
S,2731,10924020,611,0,0,42906
S,2732,10928020,558,0,0,47024
S,2733,10932020,481,0,0,50398
S,2734,10936024,421,0,0,54645
S,2735,10940020,377,0,0,58628
S,2736,10944024,352,0,0,62830
S,2737,10948020,348,0,0,1790
S,2738,10952020,354,0,0,5667
S,2739,10956020,358,0,0,10118
S,2740,10960020,355,0,0,14308
S,2741,10964020,348,0,0,18298
S,2742,10968020,346,0,0,20639
S,2743,10972020,351,0,0,24635
S,2744,10976020,355,0,0,28776
S,2745,10980020,354,0,0,33224
S,2746,10984020,350,0,0,37143
S,2747,10988020,349,0,0,41653
S,2748,10992020,356,0,0,45803
S,2749,10996024,362,0,0,49736
S,2750,11000024,360,0,0,54185
S,2751,11004020,355,0,0,58127
S,2752,11008020,355,0,0,62224
S,2753,11012020,363,0,0,3254
S,2754,11016020,369,0,0,7247
S,2755,11020020,367,0,0,11760
S,2756,11024020,362,0,0,15762
S,2757,11028020,362,0,0,19763
S,2758,11032024,369,0,0,24263
S,2759,11036020,373,0,0,28270
S,2760,11040020,370,0,0,32262
S,2761,11044020,365,0,0,36792
S,2762,11048020,365,0,0,40795
S,2763,11052020,372,0,0,43235
S,2764,11056024,375,0,0,47243
S,2765,11060020,373,0,0,51236
S,2766,11064020,369,0,0,55747
S,2767,11068020,370,0,0,59745
S,2768,11072020,376,0,0,63764
S,2769,11076020,379,0,0,2743
S,2770,11080020,377,0,0,6742
S,2771,11084020,373,0,0,11259
S,2772,11088020,374,0,0,15263
S,2773,11092020,382,0,0,19254
S,2774,11096020,387,0,0,17448
S,2775,11100020,386,0,0,21640
S,2776,11104024,382,0,0,25623
S,2777,11108020,383,0,0,30139
S,2778,11112020,389,0,0,34210
S,2779,11116024,397,0,0,38407
S,2780,11120020,396,0,0,42605
S,2781,11124024,393,0,0,46789
S,2782,11128024,393,0,0,50982
S,2783,11132020,401,0,0,55187
S,2784,11136020,407,0,0,59338
S,2785,11140020,407,0,0,61547
S,2786,11144020,404,0,0,136
S,2787,11148020,403,0,0,4398
S,2788,11152020,411,0,0,8513
S,2789,11156020,418,0,0,12761
S,2790,11160024,417,0,0,16949
S,2791,11164020,411,0,0,21154
S,2792,11168020,409,0,0,25295
S,2793,11172020,415,0,0,29544
S,2794,11176020,421,0,0,33713
S,2795,11180024,417,0,0,39960
S,2796,11184020,408,0,0,44106
S,2797,11188020,402,0,0,48353
S,2798,11192020,404,0,0,52484
S,2799,11196020,407,0,0,56742
S,2800,11200020,402,0,0,60892
S,2801,11204020,392,0,0,65127
S,2802,11208020,385,0,0,3724
S,2803,11212020,388,0,0,7976
S,2804,11216020,391,0,0,12108
S,2805,11220020,388,0,0,16366
S,2806,11224020,379,0,0,18674
S,2807,11228020,374,0,0,22622
S,2808,11232020,380,0,0,26683
S,2809,11236020,386,0,0,31076
S,2810,11240020,385,0,0,35204
S,2811,11244020,377,0,0,39645
S,2812,11248020,375,0,0,43700
S,2813,11252020,382,0,0,47644
S,2814,11256020,391,0,0,51974
S,2815,11260020,392,0,0,56232
S,2816,11264020,385,0,0,59966
S,2817,11268020,383,0,0,58721
S,2818,11272020,390,0,0,62843
S,2819,11276020,401,0,0,1226
S,2820,11280020,401,0,0,5293
S,2821,11284024,394,0,0,9243
S,2822,11288020,390,0,0,14328
S,2823,11292020,399,0,0,18256
S,2824,11296020,411,0,0,22315
S,2825,11300020,412,0,0,26253
S,2826,11304020,404,0,0,30310
S,2827,11308024,399,0,0,33232
S,2828,11312024,407,0,0,37295
S,2829,11316020,418,0,0,41271
S,2830,11320020,419,0,0,45269
S,2831,11324020,411,0,0,49228
S,2832,11328024,405,0,0,53297
S,2833,11332020,409,0,0,58256
S,2834,11336020,419,0,0,62281
S,2835,11340020,419,0,0,745
S,2836,11344020,411,0,0,4790
S,2837,11348024,404,0,0,8724
S,2838,11352020,410,0,0,15861
S,2839,11356024,422,0,0,19812
S,2840,11360020,424,0,0,23817
S,2841,11364020,414,0,0,27806
S,2842,11368020,405,0,0,31862
S,2843,11372020,409,0,0,36827
S,2844,11376020,419,0,0,40838
S,2845,11380020,419,0,0,44839
S,2846,11384020,408,0,0,48895
S,2847,11388020,399,0,0,52809
S,2848,11392020,403,0,0,56842
S,2849,11396020,415,0,0,59815
S,2850,11400020,416,0,0,63867
S,2851,11404024,404,0,0,2273
S,2852,11408020,393,0,0,6295
S,2853,11412020,397,0,0,10290
S,2854,11416020,408,0,0,15300
S,2855,11420024,409,0,0,19304
S,2856,11424020,399,0,0,23325
S,2857,11428020,389,0,0,27318
S,2858,11432020,393,0,0,31321
S,2859,11436020,404,0,0,30181
S,2860,11440020,406,0,0,34176
S,2861,11444020,395,0,0,38204
S,2862,11448020,385,0,0,42197
S,2863,11452024,387,0,0,46202
S,2864,11456020,398,0,0,50180
S,2865,11460024,399,0,0,55208
S,2866,11464020,389,0,0,59213
S,2867,11468024,378,0,0,63007
S,2868,11472020,381,0,0,1650
S,2869,11476020,394,0,0,5668
S,2870,11480020,395,0,0,8646
S,2871,11484020,384,0,0,12652
S,2872,11488020,373,0,0,16886
S,2873,11492020,377,0,0,20571
S,2874,11496020,390,0,0,24647
S,2875,11500020,394,0,0,29674
S,2876,11504020,384,0,0,33671
S,2877,11508024,373,0,0,37855
S,2878,11512020,376,0,0,41533
S,2879,11516020,389,0,0,45665
S,2880,11520020,390,0,0,49789
S,2881,11524020,380,0,0,56614
S,2882,11528020,369,0,0,60872
S,2883,11532020,373,0,0,64621
S,2884,11536020,387,0,0,3299
S,2885,11540024,390,0,0,7243
S,2886,11544020,380,0,0,12126
S,2887,11548020,370,0,0,16369
S,2888,11552020,374,0,0,20378
S,2889,11556020,388,0,0,24265
S,2890,11560020,391,0,0,28201
S,2891,11564020,380,0,0,31091
S,2892,11568024,369,0,0,35093
S,2893,11572020,373,0,0,39356
S,2894,11576020,386,0,0,43176
S,2895,11580020,391,0,0,47116
S,2896,11584020,382,0,0,51338
S,2897,11588020,373,0,0,56096
S,2898,11592024,378,0,0,60352
S,2899,11596024,392,0,0,64147
S,2900,11600020,398,0,0,2815
S,2901,11604020,391,0,0,6743
S,2902,11608020,380,0,0,5455
S,2903,11612020,383,0,0,9709
S,2904,11616020,399,0,0,13682
S,2905,11620020,404,0,0,17608
S,2906,11624020,397,0,0,21554
S,2907,11628020,386,0,0,26524
S,2908,11632020,388,0,0,30717
S,2909,11636020,399,0,0,34647
S,2910,11640020,401,0,0,38570
S,2911,11644024,389,0,0,42515
S,2912,11648020,377,0,0,46780
S,2913,11652020,379,0,0,49439
S,2914,11656020,389,0,0,53506
S,2915,11660020,389,0,0,57507
S,2916,11664020,377,0,0,61496
S,2917,11668020,363,0,0,136
S,2918,11672020,366,0,0,4974
S,2919,11676020,381,0,0,9180
S,2920,11680020,386,0,0,13132
S,2921,11684020,376,0,0,16919
S,2922,11688020,363,0,0,21223
S,2923,11692020,366,0,0,27971
S,2924,11696020,381,0,0,32055
S,2925,11700020,387,0,0,36200
S,2926,11704020,378,0,0,40050
S,2927,11708024,366,0,0,44235
S,2928,11712024,370,0,0,48296
S,2929,11716020,385,0,0,53238
S,2930,11720024,391,0,0,57119
S,2931,11724024,378,0,0,60995
S,2932,11728020,360,0,0,65082
S,2933,11732024,365,0,0,3731
S,2934,11736020,398,0,0,6559
S,2935,11740020,444,0,0,10508
S,2936,11744024,495,0,0,14652
S,2937,11748024,549,0,0,19287
S,2938,11752020,610,0,0,23551
S,2939,11756020,643,0,0,26815
S,2940,11760020,602,0,0,30721
S,2941,11764024,507,0,0,35597
S,2942,11768020,426,0,0,39603
S,2943,11772020,385,0,0,43577
S,2944,11776020,384,0,0,47783
S,2945,11780020,391,0,0,46337
S,2946,11784024,384,0,0,50665
S,2947,11788020,370,0,0,54454
S,2948,11792024,369,0,0,58590
S,2949,11796024,383,0,0,62577
S,2950,11800020,387,0,0,1893
S,2951,11804020,375,0,0,5936
S,2952,11808020,359,0,0,10063
S,2953,11812020,359,0,0,14062
S,2954,11816020,376,0,0,17938
S,2955,11820020,382,0,0,20917
S,2956,11824024,369,0,0,25041
S,2957,11828020,349,0,0,29008
S,2958,11832020,346,0,0,32948
S,2959,11836024,359,0,0,36900
S,2960,11840020,364,0,0,41052
S,2961,11844020,350,0,0,46031
S,2962,11848024,328,0,0,49974
S,2963,11852020,328,0,0,53915
S,2964,11856024,340,0,0,58092
S,2965,11860020,329,0,0,62044
S,2966,11864020,306,0,0,3525
S,2967,11868020,292,0,0,7538
S,2968,11872020,294,0,0,11551
S,2969,11876020,313,0,0,15521
S,2970,11880024,328,0,0,19519
S,2971,11884020,328,0,0,24466
S,2972,11888020,320,0,0,28669
S,2973,11892020,323,0,0,32607
S,2974,11896020,334,0,0,36529
S,2975,11900020,327,0,0,40473
S,2976,11904020,295,0,0,44582
S,2977,11908020,255,0,0,47199
S,2978,11912020,236,0,0,51375
S,2979,11916020,242,0,0,55568
S,2980,11920020,243,0,0,59766
S,2981,11924020,227,0,0,63943
S,2982,11928020,205,0,0,2569
S,2983,11932020,200,0,0,6829
S,2984,11936020,208,0,0,10970
S,2985,11940020,205,0,0,15206
S,2986,11944020,187,0,0,19443
S,2987,11948020,167,0,0,17486
S,2988,11952024,171,0,0,21545
S,2989,11956024,196,0,0,25831
S,2990,11960020,216,0,0,29972
S,2991,11964020,223,0,0,34226
S,2992,11968020,226,0,0,38384
S,2993,11972024,239,0,0,42576
S,2994,11976024,258,0,0,46942
S,2995,11980024,267,0,0,50934
S,2996,11984020,266,0,0,54940
S,2997,11988020,264,0,0,58943
S,2998,11992024,272,0,0,61896
S,2999,11996024,288,0,0,344
S,3000,12000020,295,0,0,4412
S,3001,12004020,292,0,0,8350
S,3002,12008020,288,0,0,12409
S,3003,12012020,293,0,0,17373
S,3004,12016020,307,0,0,21420
S,3005,12020024,312,0,0,25354
S,3006,12024020,308,0,0,29417
S,3007,12028020,303,0,0,33363
S,3008,12032020,308,0,0,37463
S,3009,12036020,320,0,0,44418
S,3010,12040020,321,0,0,48480
S,3011,12044020,314,0,0,52410
S,3012,12048024,309,0,0,56542
S,3013,12052020,313,0,0,60543
S,3014,12056020,323,0,0,65510
S,3015,12060020,325,0,0,3918
S,3016,12064020,319,0,0,8027
S,3017,12068020,314,0,0,12031
S,3018,12072020,318,0,0,15896
S,3019,12076020,327,0,0,18880
S,3020,12080024,328,0,0,22948
S,3021,12084020,228,0,0,26789
S,3022,12088020,0,0,0,31138
S,3023,12092020,0,0,0,35075
S,3024,12096020,0,0,0,39292
S,3025,12100020,0,0,0,43741
S,3026,12104020,0,0,0,47678
S,3027,12108020,0,0,0,52127
S,3028,12112020,0,0,0,56312
S,3029,12116020,0,0,0,60249
S,3030,12120020,0,0,0,58554
S,3031,12124020,0,0,0,62491
S,3032,12128020,43,0,0,1118
S,3033,12132020,107,0,0,5567
S,3034,12136020,138,0,0,9661
S,3035,12140020,137,0,0,13855
S,3036,12144020,143,0,0,18046
S,3037,12148024,169,0,0,22261
S,3038,12152024,197,0,0,26490
S,3039,12156020,206,0,0,30684
S,3040,12160020,202,0,0,34695
S,3041,12164020,210,0,0,36926
S,3042,12168020,234,0,0,41189
S,3043,12172020,258,0,0,45228
S,3044,12176020,263,0,0,49358
S,3045,12180020,256,0,0,53352
S,3046,12184020,262,0,0,58253
S,3047,12188024,285,0,0,62267
S,3048,12192020,305,0,0,887
S,3049,12196024,307,0,0,4824
S,3050,12200020,296,0,0,8748
S,3051,12204020,297,0,0,15756
S,3052,12208020,316,0,0,19966
S,3053,12212020,333,0,0,23854
S,3054,12216024,334,0,0,27842
S,3055,12220024,323,0,0,31854
S,3056,12224020,327,0,0,35865
S,3057,12228020,348,0,0,40867
S,3058,12232024,366,0,0,44926
S,3059,12236024,364,0,0,48861
S,3060,12240020,351,0,0,52869
S,3061,12244020,351,0,0,56868
S,3062,12248020,370,0,0,59882
S,3063,12252020,386,0,0,63931
S,3064,12256020,385,0,0,2518
S,3065,12260020,373,0,0,6275
S,3066,12264024,373,0,0,10348
S,3067,12268020,390,0,0,15154
S,3068,12272020,405,0,0,19270
S,3069,12276024,402,0,0,23532
S,3070,12280020,387,0,0,27154
S,3071,12284020,386,0,0,31410
S,3072,12288020,403,0,0,36156
S,3073,12292020,419,0,0,33453
S,3074,12296020,416,0,0,37453
S,3075,12300020,400,0,0,41948
S,3076,12304020,397,0,0,45990
S,3077,12308024,414,0,0,49944
S,3078,12312024,430,0,0,53451
S,3079,12316020,430,0,0,57446
S,3080,12320020,416,0,0,61447
S,3081,12324020,409,0,0,408
S,3082,12328020,421,0,0,4423
S,3083,12332020,440,0,0,9979
S,3084,12336020,441,0,0,13981
S,3085,12340020,423,0,0,17954
S,3086,12344020,415,0,0,22521
S,3087,12348020,428,0,0,26475
S,3088,12352020,442,0,0,30466
S,3089,12356020,439,0,0,33966
S,3090,12360024,424,0,0,37982
S,3091,12364024,422,0,0,42481
S,3092,12368024,433,0,0,46465
S,3093,12372020,449,0,0,50524
S,3094,12376020,463,0,0,55985
S,3095,12380020,464,0,0,59919
S,3096,12384020,456,0,0,64120
S,3097,12388020,450,0,0,3026
S,3098,12392020,456,0,0,6971
S,3099,12396020,469,0,0,10375
S,3100,12400024,473,0,0,14560
S,3101,12404024,468,0,0,18508
S,3102,12408024,461,0,0,22966
S,3103,12412020,460,0,0,26906
S,3104,12416020,467,0,0,31066
S,3105,12420020,467,0,0,36603
S,3106,12424020,461,0,0,40454
S,3107,12428024,452,0,0,44962
S,3108,12432024,451,0,0,49090
S,3109,12436024,458,0,0,53098
S,3110,12440020,458,0,0,56453
S,3111,12444020,452,0,0,60458
S,3112,12448020,446,0,0,64575
S,3113,12452020,449,0,0,3554
S,3114,12456020,457,0,0,7433
S,3115,12460020,443,0,0,4826
S,3116,12464020,428,0,0,8874
S,3117,12468020,434,0,0,12821
S,3118,12472020,448,0,0,17284
S,3119,12476020,448,0,0,21285
S,3120,12480024,434,0,0,25380
S,3121,12484020,431,0,0,28820
S,3122,12488024,446,0,0,32874
S,3123,12492020,459,0,0,37298
S,3124,12496020,452,0,0,41434
S,3125,12500020,429,0,0,45330
S,3126,12504024,421,0,0,50933
S,3127,12508020,444,0,0,54849
S,3128,12512020,487,0,0,58997
S,3129,12516024,532,0,0,62507
S,3130,12520020,581,0,0,1172
S,3131,12524020,641,0,0,6129
S,3132,12528020,697,0,0,10158
S,3133,12532020,695,0,0,14081
S,3134,12536024,628,0,0,17965
S,3135,12540020,529,0,0,22245
S,3136,12544020,462,0,0,25893
S,3137,12548020,442,0,0,31472
S,3138,12552020,444,0,0,35349
S,3139,12556024,439,0,0,39859
S,3140,12560020,423,0,0,43976
S,3141,12564024,419,0,0,47969
S,3142,12568020,433,0,0,51356
S,3143,12572020,446,0,0,55346
S,3144,12576020,440,0,0,59483
S,3145,12580020,421,0,0,63975
S,3146,12584020,416,0,0,2430
S,3147,12588020,430,0,0,7889
S,3148,12592024,446,0,0,11946
S,3149,12596020,440,0,0,15873
S,3150,12600020,423,0,0,20477
S,3151,12604020,417,0,0,24410
S,3152,12608020,433,0,0,28469
S,3153,12612020,448,0,0,31973
S,3154,12616020,443,0,0,35965
S,3155,12620020,425,0,0,40398
S,3156,12624020,418,0,0,44450
S,3157,12628020,433,0,0,48400
S,3158,12632020,449,0,0,45699
S,3159,12636020,445,0,0,49758
S,3160,12640020,429,0,0,53793
S,3161,12644020,424,0,0,58245
S,3162,12648024,437,0,0,62327
S,3163,12652020,452,0,0,170
S,3164,12656020,448,0,0,4297
S,3165,12660020,430,0,0,8198
S,3166,12664020,425,0,0,12770
S,3167,12668020,440,0,0,16722
S,3168,12672020,456,0,0,20861
S,3169,12676020,452,0,0,26320
S,3170,12680020,433,0,0,30278
S,3171,12684020,426,0,0,34812
S,3172,12688020,442,0,0,38795
S,3173,12692020,458,0,0,42842
S,3174,12696020,455,0,0,46260
S,3175,12700020,436,0,0,50278
S,3176,12704020,431,0,0,54290
S,3177,12708020,446,0,0,58786
S,3178,12712020,462,0,0,62769
S,3179,12716020,457,0,0,2708
S,3180,12720024,439,0,0,6785
S,3181,12724020,433,0,0,10794
S,3182,12728020,451,0,0,15291
S,3183,12732020,469,0,0,19212
S,3184,12736020,467,0,0,23413
S,3185,12740020,449,0,0,26822
S,3186,12744024,443,0,0,30803
S,3187,12748020,459,0,0,35214
S,3188,12752020,475,0,0,39417
S,3189,12756020,471,0,0,43348
S,3190,12760020,453,0,0,48805
S,3191,12764020,447,0,0,52862
S,3192,12768020,462,0,0,56928
S,3193,12772020,478,0,0,61393
S,3194,12776020,475,0,0,65335
S,3195,12780020,455,0,0,3211
S,3196,12784020,445,0,0,7318
S,3197,12788020,457,0,0,11331
S,3198,12792020,468,0,0,15805
S,3199,12796020,460,0,0,19716
S,3200,12800024,436,0,0,24047
S,3201,12804024,424,0,0,21074
S,3202,12808020,432,0,0,25253
S,3203,12812020,444,0,0,29448
S,3204,12816020,436,0,0,33639
S,3205,12820020,413,0,0,37871
S,3206,12824020,403,0,0,40962
S,3207,12828020,413,0,0,45229
S,3208,12832020,427,0,0,49396
S,3209,12836020,422,0,0,53592
S,3210,12840024,402,0,0,57731
S,3211,12844020,393,0,0,63029
S,3212,12848020,405,0,0,1609
S,3213,12852020,420,0,0,5849
S,3214,12856020,416,0,0,10046
S,3215,12860020,395,0,0,14260
S,3216,12864020,388,0,0,18372
S,3217,12868020,401,0,0,21616
S,3218,12872020,419,0,0,25761
S,3219,12876020,415,0,0,30012
S,3220,12880024,395,0,0,34115
S,3221,12884020,386,0,0,38375
S,3222,12888020,400,0,0,43542
S,3223,12892020,415,0,0,47800
S,3224,12896024,412,0,0,51928
S,3225,12900020,392,0,0,56161
S,3226,12904020,384,0,0,60298
S,3227,12908020,398,0,0,63525
S,3228,12912020,414,0,0,2131
S,3229,12916020,410,0,0,6390
S,3230,12920020,391,0,0,10504
S,3231,12924024,383,0,0,14685
S,3232,12928020,396,0,0,18941
S,3233,12932020,411,0,0,24139
S,3234,12936020,408,0,0,28331
S,3235,12940020,388,0,0,32534
S,3236,12944020,380,0,0,36745
S,3237,12948020,394,0,0,40926
S,3238,12952020,410,0,0,44077
S,3239,12956020,406,0,0,48256
S,3240,12960020,386,0,0,52475
S,3241,12964020,377,0,0,56737
S,3242,12968024,390,0,0,60849
S,3243,12972020,406,0,0,57868
S,3244,12976020,404,0,0,62057
S,3245,12980020,384,0,0,735
S,3246,12984024,376,0,0,5064
S,3247,12988020,390,0,0,9115
S,3248,12992020,406,0,0,13300
S,3249,12996020,403,0,0,16464
S,3250,13000020,383,0,0,20575
S,3251,13004020,374,0,0,25079
S,3252,13008020,389,0,0,29027
S,3253,13012024,406,0,0,33245
S,3254,13016020,402,0,0,38454
S,3255,13020020,383,0,0,42618
S,3256,13024020,374,0,0,46620
S,3257,13028024,388,0,0,51011
S,3258,13032024,405,0,0,55217
S,3259,13036020,403,0,0,58394
S,3260,13040020,383,0,0,62609
S,3261,13044020,373,0,0,1083
S,3262,13048020,385,0,0,5420
S,3263,13052020,403,0,0,9631
S,3264,13056024,400,0,0,13711
S,3265,13060020,380,0,0,19150
S,3266,13064020,371,0,0,23074
S,3267,13068020,384,0,0,27504
S,3268,13072020,402,0,0,31493
S,3269,13076020,400,0,0,35750
S,3270,13080024,380,0,0,39077
S,3271,13084020,370,0,0,43014
S,3272,13088020,383,0,0,47204
S,3273,13092024,400,0,0,51494
S,3274,13096020,399,0,0,55766
S,3275,13100020,379,0,0,61059
S,3276,13104020,370,0,0,65261
S,3277,13108020,384,0,0,3761
S,3278,13112024,401,0,0,8015
S,3279,13116024,400,0,0,12271
S,3280,13120020,381,0,0,16241
S,3281,13124024,371,0,0,19666
S,3282,13128020,383,0,0,23601
S,3283,13132020,402,0,0,28029
S,3284,13136020,401,0,0,32025
S,3285,13140020,383,0,0,36182
S,3286,13144020,373,0,0,33471
S,3287,13148020,387,0,0,37608
S,3288,13152020,406,0,0,41618
S,3289,13156020,407,0,0,45874
S,3290,13160020,391,0,0,50113
S,3291,13164020,382,0,0,53401
S,3292,13168020,393,0,0,57353
S,3293,13172020,410,0,0,61627
S,3294,13176020,411,0,0,344
S,3295,13180020,393,0,0,4587
S,3296,13184020,385,0,0,8636
S,3297,13188024,397,0,0,13853
S,3298,13192020,412,0,0,18147
S,3299,13196020,409,0,0,22343
S,3300,13200020,389,0,0,26428
S,3301,13204020,378,0,0,30562
S,3302,13208020,388,0,0,33919
S,3303,13212020,401,0,0,38091
S,3304,13216020,396,0,0,42169
S,3305,13220020,373,0,0,46561
S,3306,13224020,361,0,0,50462
S,3307,13228020,371,0,0,55973
S,3308,13232020,388,0,0,59957
S,3309,13236020,386,0,0,64146
S,3310,13240020,367,0,0,2975
S,3311,13244020,357,0,0,6964
S,3312,13248020,368,0,0,11102
S,3313,13252020,386,0,0,14349
S,3314,13256020,385,0,0,18669
S,3315,13260020,367,0,0,22946
S,3316,13264020,357,0,0,27087
S,3317,13268024,369,0,0,31094
S,3318,13272020,387,0,0,36459
S,3319,13276020,386,0,0,40651
S,3320,13280020,366,0,0,44616
S,3321,13284020,351,0,0,49112
S,3322,13288020,358,0,0,52994
S,3323,13292020,382,0,0,56507
S,3324,13296020,404,0,0,60470
S,3325,13300020,429,0,0,64686
S,3326,13304020,481,0,0,3328
S,3327,13308020,558,0,0,7790
S,3328,13312020,629,0,0,12202
S,3329,13316020,627,0,0,8205
S,3330,13320020,545,0,0,12476
S,3331,13324020,452,0,0,17144
S,3332,13328020,403,0,0,21192
S,3333,13332020,384,0,0,25210
S,3334,13336020,367,0,0,29046
S,3335,13340020,345,0,0,33249
S,3336,13344020,333,0,0,37274
S,3337,13348020,342,0,0,40992
S,3338,13352020,358,0,0,45299
S,3339,13356020,358,0,0,51026
S,3340,13360020,340,0,0,55047
S,3341,13364020,328,0,0,59322
S,3342,13368020,338,0,0,63043
S,3343,13372020,357,0,0,1746
S,3344,13376020,360,0,0,5792
S,3345,13380020,342,0,0,9535
S,3346,13384020,329,0,0,13763
S,3347,13388020,339,0,0,17528
S,3348,13392020,358,0,0,21546
S,3349,13396020,361,0,0,25732
S,3350,13400020,345,0,0,31575
S,3351,13404024,334,0,0,35821
S,3352,13408020,344,0,0,39832
S,3353,13412020,363,0,0,43530
S,3354,13416020,366,0,0,47852
S,3355,13420024,351,0,0,51568
S,3356,13424020,341,0,0,55569
S,3357,13428024,350,0,0,59831
S,3358,13432020,369,0,0,63607
S,3359,13436020,372,0,0,2258
S,3360,13440020,356,0,0,6301
S,3361,13444024,344,0,0,12044
S,3362,13448020,352,0,0,16347
S,3363,13452020,370,0,0,20072
S,3364,13456020,380,0,0,24065
S,3365,13460020,375,0,0,28331
S,3366,13464020,366,0,0,32081
S,3367,13468020,358,0,0,36344
S,3368,13472020,359,0,0,40342
S,3369,13476020,369,0,0,44065
S,3370,13480020,379,0,0,48328
S,3371,13484020,379,0,0,45929
S,3372,13488024,372,0,0,49933
S,3373,13492020,368,0,0,54180
S,3374,13496020,377,0,0,57934
S,3375,13500020,386,0,0,61972
S,3376,13504024,386,0,0,612
S,3377,13508020,379,0,0,4400
S,3378,13512020,377,0,0,8657
S,3379,13516020,388,0,0,12429
S,3380,13520024,398,0,0,16620
S,3381,13524020,398,0,0,20545
S,3382,13528020,390,0,0,26538
S,3383,13532020,385,0,0,30476
S,3384,13536020,395,0,0,34665
S,3385,13540020,405,0,0,38614
S,3386,13544020,406,0,0,42550
S,3387,13548020,397,0,0,46476
S,3388,13552020,392,0,0,50670
S,3389,13556024,400,0,0,54619
S,3390,13560020,410,0,0,58558
S,3391,13564020,409,0,0,62492
S,3392,13568020,397,0,0,1046
S,3393,13572024,388,0,0,7090
S,3394,13576020,393,0,0,11088
S,3395,13580020,399,0,0,15095
S,3396,13584024,394,0,0,19097
S,3397,13588020,379,0,0,23237
S,3398,13592024,368,0,0,26913
S,3399,13596020,370,0,0,31118
S,3400,13600020,373,0,0,35302
S,3401,13604020,366,0,0,39004
S,3402,13608024,352,0,0,43197
S,3403,13612020,341,0,0,48933
S,3404,13616020,345,0,0,53070
S,3405,13620020,351,0,0,57321
S,3406,13624020,347,0,0,60942
S,3407,13628020,336,0,0,65188
S,3408,13632020,328,0,0,3804
S,3409,13636020,332,0,0,7545
S,3410,13640020,338,0,0,11652
S,3411,13644020,335,0,0,15416
S,3412,13648020,326,0,0,19542
S,3413,13652020,319,0,0,23694
S,3414,13656024,324,0,0,21274
S,3415,13660020,330,0,0,25529
S,3416,13664024,327,0,0,29655
S,3417,13668020,317,0,0,33280
S,3418,13672020,311,0,0,37609
S,3419,13676024,314,0,0,41289
S,3420,13680020,317,0,0,45349
S,3421,13684024,314,0,0,49551
S,3422,13688024,307,0,0,53349
S,3423,13692020,304,0,0,57547
S,3424,13696020,310,0,0,61586
S,3425,13700020,315,0,0,1855
S,3426,13704020,311,0,0,6096
S,3427,13708020,304,0,0,9846
S,3428,13712020,300,0,0,13837
S,3429,13716020,303,0,0,18095
S,3430,13720024,307,0,0,21852
S,3431,13724020,304,0,0,26098
S,3432,13728020,297,0,0,30084
S,3433,13732020,294,0,0,33834
S,3434,13736020,297,0,0,38086
S,3435,13740024,298,0,0,43880
S,3436,13744024,292,0,0,47873
S,3437,13748020,280,0,0,52112
S,3438,13752020,272,0,0,55931
S,3439,13756020,273,0,0,60123
S,3440,13760020,276,0,0,64161
S,3441,13764020,271,0,0,2328
S,3442,13768020,259,0,0,6647
S,3443,13772024,249,0,0,10656
S,3444,13776020,245,0,0,14791
S,3445,13780020,241,0,0,18786
S,3446,13784020,235,0,0,24219
S,3447,13788020,230,0,0,28215
S,3448,13792020,227,0,0,32349
S,3449,13796020,228,0,0,36859
S,3450,13800020,226,0,0,40734
S,3451,13804020,221,0,0,44160
S,3452,13808020,217,0,0,48355
S,3453,13812024,218,0,0,52301
S,3454,13816024,226,0,0,56726
S,3455,13820020,230,0,0,60735
S,3456,13824020,229,0,0,64931
S,3457,13828020,227,0,0,61956
S,3458,13832020,232,0,0,749
S,3459,13836024,240,0,0,4952
S,3460,13840020,246,0,0,9013
S,3461,13844020,247,0,0,13205
S,3462,13848020,249,0,0,16504
S,3463,13852020,255,0,0,20703
S,3464,13856020,266,0,0,24901
S,3465,13860020,273,0,0,28927
S,3466,13864024,275,0,0,32786
S,3467,13868020,276,0,0,38840
S,3468,13872020,281,0,0,42962
S,3469,13876020,291,0,0,46921
S,3470,13880020,297,0,0,50848
S,3471,13884020,298,0,0,54786
S,3472,13888020,298,0,0,59005
S,3473,13892020,302,0,0,62936
S,3474,13896020,311,0,0,1317
S,3475,13900020,318,0,0,5261
S,3476,13904020,318,0,0,9450
S,3477,13908020,318,0,0,13387
S,3478,13912020,322,0,0,19412
S,3479,13916024,329,0,0,23410
S,3480,13920020,335,0,0,27415
S,3481,13924020,335,0,0,31414
S,3482,13928020,334,0,0,35412
S,3483,13932020,339,0,0,39400
S,3484,13936020,350,0,0,43394
S,3485,13940020,359,0,0,47386
S,3486,13944024,361,0,0,51451
S,3487,13948024,363,0,0,55384
S,3488,13952020,368,0,0,59408
S,3489,13956020,374,0,0,65463
S,3490,13960020,379,0,0,3928
S,3491,13964020,380,0,0,7934
S,3492,13968020,381,0,0,11928
S,3493,13972020,387,0,0,16071
S,3494,13976020,394,0,0,19757
S,3495,13980020,397,0,0,23947
S,3496,13984020,393,0,0,28128
S,3497,13988020,389,0,0,31821
S,3498,13992020,387,0,0,36008
S,3499,13996020,390,0,0,33548
S,3500,14000020,390,0,0,37739
S,3501,14004020,386,0,0,41934
S,3502,14008020,380,0,0,45779
S,3503,14012020,380,0,0,49778
S,3504,14016020,385,0,0,54000
S,3505,14020020,390,0,0,57686
S,3506,14024024,388,0,0,61883
S,3507,14028024,384,0,0,29
S,3508,14032024,383,0,0,4229
S,3509,14036020,387,0,0,8404
S,3510,14040020,391,0,0,14131
S,3511,14044024,389,0,0,18332
S,3512,14048020,384,0,0,22522
S,3513,14052020,384,0,0,26203
S,3514,14056020,389,0,0,30397
S,3515,14060020,395,0,0,34066
S,3516,14064020,396,0,0,38258
S,3517,14068020,392,0,0,42455
S,3518,14072020,386,0,0,46142
S,3519,14076020,387,0,0,50334
S,3520,14080020,396,0,0,54414
S,3521,14084020,416,0,0,60163
S,3522,14088020,458,0,0,64394
S,3523,14092020,522,0,0,2538
S,3524,14096020,594,0,0,6613
S,3525,14100020,649,0,0,10671
S,3526,14104020,647,0,0,14914
S,3527,14108020,580,0,0,18976
S,3528,14112020,496,0,0,23035
S,3529,14116020,440,0,0,26642
S,3530,14120024,406,0,0,30931
S,3531,14124020,387,0,0,36715
S,3532,14128020,381,0,0,40946
S,3533,14132020,383,0,0,44881
S,3534,14136020,388,0,0,48713
S,3535,14140020,391,0,0,52971
S,3536,14144024,387,0,0,56988
S,3537,14148020,380,0,0,60878
S,3538,14152024,376,0,0,64805
S,3539,14156020,379,0,0,3204
S,3540,14160020,384,0,0,7192
S,3541,14164020,383,0,0,11334
S,3542,14168024,380,0,0,9130
S,3543,14172020,381,0,0,13062
S,3544,14176024,387,0,0,17307
S,3545,14180020,391,0,0,21042
S,3546,14184020,389,0,0,25299
S,3547,14188020,386,0,0,29045
S,3548,14192020,386,0,0,33042
S,3549,14196024,391,0,0,37306
S,3550,14200020,395,0,0,41049
S,3551,14204020,394,0,0,45305
S,3552,14208020,391,0,0,49323
S,3553,14212020,391,0,0,55050
S,3554,14216020,395,0,0,59365
S,3555,14220024,399,0,0,63052
S,3556,14224020,397,0,0,1572
S,3557,14228020,395,0,0,5763
S,3558,14232020,400,0,0,9595
S,3559,14236020,407,0,0,13789
S,3560,14240024,411,0,0,17842
S,3561,14244020,407,0,0,21523
S,3562,14248020,404,0,0,25843
S,3563,14252020,407,0,0,31569
S,3564,14256020,414,0,0,35647
S,3565,14260020,418,0,0,39842
S,3566,14264020,416,0,0,43587
S,3567,14268020,415,0,0,47837
S,3568,14272020,420,0,0,51865
S,3569,14276020,428,0,0,55600
S,3570,14280024,434,0,0,59841
S,3571,14284020,433,0,0,63599
S,3572,14288020,432,0,0,2058
S,3573,14292020,437,0,0,6318
S,3574,14296020,444,0,0,12100
S,3575,14300024,450,0,0,16279
S,3576,14304024,449,0,0,20475
S,3577,14308020,448,0,0,24151
S,3578,14312020,452,0,0,28336
S,3579,14316024,461,0,0,32020
S,3580,14320020,468,0,0,36198
S,3581,14324020,468,0,0,40391
S,3582,14328020,468,0,0,44068
S,3583,14332020,472,0,0,48265
S,3584,14336020,481,0,0,53039
S,3585,14340020,488,0,0,49287
S,3586,14344020,490,0,0,53350
S,3587,14348020,490,0,0,57799
S,3588,14352024,492,0,0,61866
S,3589,14356020,498,0,0,280
S,3590,14360020,504,0,0,4849
S,3591,14364020,503,0,0,8799
S,3592,14368024,498,0,0,12857
S,3593,14372020,494,0,0,17288
S,3594,14376020,495,0,0,21354
S,3595,14380020,494,0,0,25802
S,3596,14384024,489,0,0,29862
S,3597,14388020,483,0,0,33793
S,3598,14392020,480,0,0,38369
S,3599,14396020,482,0,0,42306
S,3600,14400020,485,0,0,46394
S,3601,14404020,482,0,0,50844
S,3602,14408024,478,0,0,54863
S,3603,14412020,476,0,0,59360
S,3604,14416020,481,0,0,63418
S,3605,14420020,486,0,0,1819
S,3606,14424020,485,0,0,6395
S,3607,14428020,483,0,0,10332
S,3608,14432020,484,0,0,14388
S,3609,14436020,491,0,0,18842
S,3610,14440020,497,0,0,22883
S,3611,14444020,496,0,0,27331
S,3612,14448020,491,0,0,31423
S,3613,14452024,488,0,0,35345
S,3614,14456020,491,0,0,39933
S,3615,14460020,497,0,0,43846
S,3616,14464020,497,0,0,47897
S,3617,14468020,495,0,0,52390
S,3618,14472020,494,0,0,56388
S,3619,14476020,498,0,0,60921
S,3620,14480024,503,0,0,64919
S,3621,14484020,504,0,0,3380
S,3622,14488020,501,0,0,7898
S,3623,14492020,501,0,0,11899
S,3624,14496020,508,0,0,15901
S,3625,14500020,517,0,0,19525
S,3626,14504020,518,0,0,23717
S,3627,14508020,517,0,0,21255
S,3628,14512020,517,0,0,25440
S,3629,14516020,524,0,0,29640
S,3630,14520020,532,0,0,33331
S,3631,14524020,530,0,0,37524
S,3632,14528020,523,0,0,41714
S,3633,14532020,515,0,0,45403
S,3634,14536024,512,0,0,49591
S,3635,14540020,513,0,0,53275
S,3636,14544020,509,0,0,58240
S,3637,14548020,502,0,0,62250
S,3638,14552020,497,0,0,1229
S,3639,14556020,498,0,0,5231
S,3640,14560020,501,0,0,9223
S,3641,14564020,496,0,0,13731
S,3642,14568020,485,0,0,17749
S,3643,14572020,473,0,0,22216
S,3644,14576020,469,0,0,26275
S,3645,14580024,471,0,0,30220
S,3646,14584020,466,0,0,34790
S,3647,14588020,454,0,0,38739
S,3648,14592020,442,0,0,42800
S,3649,14596020,435,0,0,47256
S,3650,14600024,432,0,0,51316
S,3651,14604020,423,0,0,55758
S,3652,14608020,410,0,0,59796
S,3653,14612020,399,0,0,63776
S,3654,14616020,396,0,0,2753
S,3655,14620020,398,0,0,6754
S,3656,14624020,393,0,0,10762
S,3657,14628020,382,0,0,15196
S,3658,14632020,371,0,0,19378
S,3659,14636020,367,0,0,23567
S,3660,14640020,368,0,0,27767
S,3661,14644020,361,0,0,31951
S,3662,14648020,350,0,0,36123
S,3663,14652024,338,0,0,40378
S,3664,14656020,335,0,0,44500
S,3665,14660020,337,0,0,48747
S,3666,14664024,333,0,0,52888
S,3667,14668020,324,0,0,57148
S,3668,14672020,314,0,0,61221
S,3669,14676020,314,0,0,65412
S,3670,14680020,318,0,0,61539
S,3671,14684020,316,0,0,255
S,3672,14688020,308,0,0,4248
S,3673,14692020,299,0,0,8486
S,3674,14696020,296,0,0,12742
S,3675,14700024,298,0,0,17001
S,3676,14704020,297,0,0,20993
S,3677,14708024,290,0,0,25255
S,3678,14712020,285,0,0,29559
S,3679,14716020,286,0,0,33749
S,3680,14720020,290,0,0,37814
S,3681,14724020,286,0,0,42027
S,3682,14728020,275,0,0,46277
S,3683,14732020,264,0,0,50559
S,3684,14736020,261,0,0,54549
S,3685,14740020,264,0,0,58809
S,3686,14744024,259,0,0,63069
S,3687,14748020,248,0,0,1802
S,3688,14752020,238,0,0,6003
S,3689,14756020,239,0,0,9939
S,3690,14760020,246,0,0,13865
S,3691,14764020,244,0,0,18826
S,3692,14768020,235,0,0,23026
S,3693,14772020,224,0,0,26968
S,3694,14776020,221,0,0,30854
S,3695,14780024,227,0,0,34837
S,3696,14784024,227,0,0,39018
S,3697,14788020,220,0,0,44024
S,3698,14792020,212,0,0,47891
S,3699,14796024,210,0,0,51896
S,3700,14800024,214,0,0,56027
S,3701,14804024,212,0,0,60024
S,3702,14808024,202,0,0,64901
S,3703,14812020,193,0,0,3360
S,3704,14816020,190,0,0,7472
S,3705,14820020,196,0,0,11499
S,3706,14824020,209,0,0,15389
S,3707,14828020,234,0,0,20359
S,3708,14832024,280,0,0,24094
S,3709,14836020,348,0,0,28407
S,3710,14840020,417,0,0,32745
S,3711,14844020,449,0,0,36648
S,3712,14848020,406,0,0,40928
S,3713,14852020,312,0,0,37103
S,3714,14856020,232,0,0,41436
S,3715,14860020,182,0,0,45091
S,3716,14864020,146,0,0,49248
S,3717,14868020,121,0,0,53290
S,3718,14872024,105,0,0,58325
S,3719,14876020,103,0,0,62326
S,3720,14880020,107,0,0,788
S,3721,14884024,96,0,0,4786
S,3722,14888020,68,0,0,8825
S,3723,14892020,28,0,0,13696
S,3724,14896020,0,0,0,17915
S,3725,14900020,0,0,0,21850
S,3726,14904020,0,0,0,25785
S,3727,14908020,0,0,0,29720
S,3728,14912020,0,0,0,33895
S,3729,14916024,0,0,0,38858
S,3730,14920020,0,0,0,42789
S,3731,14924020,0,0,0,46724
S,3732,14928020,0,0,0,50915
S,3733,14932020,0,0,0,54850
S,3734,14936020,0,0,0,59809
S,3735,14940020,0,0,0,63744
S,3736,14944020,0,0,0,2408
S,3737,14948020,0,0,0,6345
S,3738,14952020,0,0,0,10282
S,3739,14956024,0,0,0,15239
S,3740,14960020,0,0,0,19436
S,3741,14964020,0,0,0,23373
S,3742,14968020,0,0,0,27310
S,3743,14972020,0,0,0,31247
S,3744,14976020,0,0,0,35408
S,3745,14980020,0,0,0,40433
S,3746,14984020,0,0,0,44306
S,3747,14988020,0,0,0,48307
S,3748,14992020,0,0,0,52436
S,3749,14996020,0,0,0,56437
S,3750,15000020,0,0,0,61334
S,3751,15004020,0,0,0,65335
S,3752,15008020,0,0,0,3929
S,3753,15012020,0,0,0,7928
S,3754,15016020,0,0,0,11803
S,3755,15020020,0,0,0,8634
S,3756,15024020,0,0,0,12765
S,3757,15028020,0,0,0,16764
S,3758,15032020,0,0,0,20639
S,3759,15036020,0,0,0,24638
S,3760,15040020,0,0,0,28737
S,3761,15044020,0,0,0,33760
S,3762,15048020,0,0,0,37635
S,3763,15052020,0,0,0,41634
S,3764,15056020,0,0,0,45765
S,3765,15060020,0,0,0,49764
S,3766,15064020,0,0,0,54663
S,3767,15068020,0,0,0,58662
S,3768,15072020,0,0,0,62793
S,3769,15076020,0,0,0,1259
S,3770,15080020,0,0,0,5128
S,3771,15084020,19,0,0,10170
S,3772,15088020,62,0,0,14320
S,3773,15092020,93,0,0,18226
S,3774,15096020,109,0,0,22241
S,3775,15100020,114,0,0,26207
S,3776,15104020,113,0,0,30275
S,3777,15108020,115,0,0,35296
S,3778,15112020,124,0,0,39180
S,3779,15116020,134,0,0,43095
S,3780,15120020,141,0,0,47163
S,3781,15124024,141,0,0,51350
S,3782,15128024,141,0,0,56181
S,3783,15132020,147,0,0,60358
S,3784,15136020,158,0,0,64420
S,3785,15140020,168,0,0,2610
S,3786,15144020,169,0,0,6864
S,3787,15148020,171,0,0,11635
S,3788,15152020,179,0,0,15628
S,3789,15156020,190,0,0,19872
S,3790,15160024,200,0,0,23609
S,3791,15164024,203,0,0,27803
S,3792,15168020,207,0,0,31980
S,3793,15172020,215,0,0,36693
S,3794,15176020,228,0,0,40837
S,3795,15180024,240,0,0,44604
S,3796,15184020,242,0,0,48725
S,3797,15188020,246,0,0,52976
S,3798,15192020,256,0,0,49381
S,3799,15196020,269,0,0,53321
S,3800,15200020,279,0,0,57404
S,3801,15204020,282,0,0,61840
S,3802,15208024,285,0,0,375
S,3803,15212020,293,0,0,4834
S,3804,15216020,303,0,0,8847
S,3805,15220020,313,0,0,12856
S,3806,15224024,316,0,0,17362
S,3807,15228020,318,0,0,21373
S,3808,15232020,326,0,0,25434
S,3809,15236020,337,0,0,29932
S,3810,15240020,346,0,0,33796
S,3811,15244024,348,0,0,38319
S,3812,15248020,349,0,0,42437
S,3813,15252020,356,0,0,46429
S,3814,15256020,366,0,0,50868
S,3815,15260020,376,0,0,54787
S,3816,15264020,377,0,0,58989
S,3817,15268020,379,0,0,63438
S,3818,15272020,385,0,0,2006
S,3819,15276020,395,0,0,6269
S,3820,15280020,403,0,0,10242
S,3821,15284020,404,0,0,14500
S,3822,15288020,405,0,0,18758
S,3823,15292020,410,0,0,23016
S,3824,15296020,419,0,0,27054
S,3825,15300024,426,0,0,31242
S,3826,15304020,426,0,0,35557
S,3827,15308020,425,0,0,39751
S,3828,15312020,430,0,0,43815
S,3829,15316020,439,0,0,48031
S,3830,15320020,447,0,0,52340
S,3831,15324020,446,0,0,56532
S,3832,15328020,446,0,0,60603
S,3833,15332020,449,0,0,64869
S,3834,15336020,456,0,0,3468
S,3835,15340024,463,0,0,7718
S,3836,15344020,463,0,0,11853
S,3837,15348020,462,0,0,16109
S,3838,15352020,465,0,0,20241
S,3839,15356020,473,0,0,24504
S,3840,15360020,479,0,0,28193
S,3841,15364020,478,0,0,24961
S,3842,15368020,477,0,0,29025
S,3843,15372020,478,0,0,32963
S,3844,15376020,485,0,0,37023
S,3845,15380020,490,0,0,41009
S,3846,15384020,489,0,0,46033
S,3847,15388024,487,0,0,50034
S,3848,15392020,490,0,0,54044
S,3849,15396020,496,0,0,58023
S,3850,15400020,500,0,0,62016
S,3851,15404020,499,0,0,1511
S,3852,15408020,497,0,0,5506
S,3853,15412020,498,0,0,9504
S,3854,15416020,504,0,0,13513
S,3855,15420020,512,0,0,18320
S,3856,15424020,513,0,0,22510
S,3857,15428020,514,0,0,25676
S,3858,15432020,517,0,0,29864
S,3859,15436020,524,0,0,34048
S,3860,15440024,530,0,0,38261
S,3861,15444020,526,0,0,42436
S,3862,15448020,522,0,0,47651
S,3863,15452024,525,0,0,51849
S,3864,15456020,532,0,0,56051
S,3865,15460020,538,0,0,60252
S,3866,15464020,536,0,0,64445
S,3867,15468020,529,0,0,2066
S,3868,15472020,528,0,0,6260
S,3869,15476020,533,0,0,10448
S,3870,15480020,536,0,0,14654
S,3871,15484020,531,0,0,18836
S,3872,15488020,524,0,0,22996
S,3873,15492020,521,0,0,28272
S,3874,15496020,524,0,0,32406
S,3875,15500020,527,0,0,36660
S,3876,15504020,522,0,0,40790
S,3877,15508024,517,0,0,45044
S,3878,15512024,518,0,0,48148
S,3879,15516020,524,0,0,52403
S,3880,15520020,528,0,0,56512
S,3881,15524020,525,0,0,60796
S,3882,15528020,521,0,0,64923
S,3883,15532020,523,0,0,62008
S,3884,15536020,528,0,0,581
S,3885,15540020,532,0,0,4832
S,3886,15544020,528,0,0,8967
S,3887,15548020,524,0,0,13242
S,3888,15552024,524,0,0,17353
S,3889,15556020,528,0,0,20600
S,3890,15560024,529,0,0,24726
S,3891,15564024,519,0,0,28961
S,3892,15568020,514,0,0,33103
S,3893,15572020,527,0,0,37347
S,3894,15576020,563,0,0,42556
S,3895,15580024,620,0,0,46798
S,3896,15584020,683,0,0,50794
S,3897,15588020,710,0,0,55206
S,3898,15592020,711,0,0,59204
S,3899,15596020,710,0,0,62692
S,3900,15600020,706,0,0,1156
S,3901,15604020,656,0,0,5239
S,3902,15608020,574,0,0,9530
S,3903,15612020,516,0,0,13729
S,3904,15616020,501,0,0,17999
S,3905,15620020,509,0,0,23014
S,3906,15624020,511,0,0,26887
S,3907,15628020,508,0,0,30885
S,3908,15632020,507,0,0,35013
S,3909,15636020,511,0,0,39008
S,3910,15640020,513,0,0,43133
S,3911,15644020,509,0,0,47904
S,3912,15648020,505,0,0,52043
S,3913,15652020,506,0,0,56041
S,3914,15656020,513,0,0,59889
S,3915,15660020,518,0,0,65111
S,3916,15664020,513,0,0,3638
S,3917,15668020,509,0,0,7531
S,3918,15672020,512,0,0,12149
S,3919,15676020,519,0,0,16339
S,3920,15680020,524,0,0,20391
S,3921,15684020,520,0,0,23554
S,3922,15688024,515,0,0,27878
S,3923,15692020,517,0,0,32077
S,3924,15696024,524,0,0,36143
S,3925,15700020,528,0,0,40350
S,3926,15704020,524,0,0,37473
S,3927,15708020,519,0,0,41675
S,3928,15712020,519,0,0,45732
S,3929,15716020,525,0,0,49935
S,3930,15720020,529,0,0,54256
S,3931,15724020,525,0,0,57421
S,3932,15728020,519,0,0,61472
S,3933,15732020,519,0,0,158
S,3934,15736020,525,0,0,4471
S,3935,15740024,528,0,0,8647
S,3936,15744024,523,0,0,12675
S,3937,15748020,518,0,0,17955
S,3938,15752020,520,0,0,22222
S,3939,15756020,526,0,0,26473
S,3940,15760024,530,0,0,30494
S,3941,15764020,526,0,0,34735
S,3942,15768024,521,0,0,37959
S,3943,15772020,522,0,0,42217
S,3944,15776024,528,0,0,46224
S,3945,15780020,532,0,0,50489
S,3946,15784020,529,0,0,54751
S,3947,15788024,526,0,0,60013
S,3948,15792020,527,0,0,64007
S,3949,15796020,534,0,0,2750
S,3950,15800020,538,0,0,6993
S,3951,15804020,535,0,0,11261
S,3952,15808020,531,0,0,15238
S,3953,15812024,532,0,0,18476
S,3954,15816024,537,0,0,22722
S,3955,15820024,541,0,0,26983
S,3956,15824020,537,0,0,30984
S,3957,15828020,532,0,0,35236
S,3958,15832020,534,0,0,40517
S,3959,15836020,540,0,0,44782
S,3960,15840020,543,0,0,48770
S,3961,15844024,537,0,0,53033
S,3962,15848020,530,0,0,57293
S,3963,15852024,527,0,0,60541
S,3964,15856020,528,0,0,64521
S,3965,15860020,527,0,0,3252
S,3966,15864020,519,0,0,7519
S,3967,15868020,507,0,0,11778
S,3968,15872020,503,0,0,16017
S,3969,15876020,505,0,0,12606
S,3970,15880024,504,0,0,16848
S,3971,15884020,495,0,0,20586
S,3972,15888024,484,0,0,24586
S,3973,15892020,480,0,0,28835
S,3974,15896024,482,0,0,33614
S,3975,15900020,484,0,0,37861
S,3976,15904020,478,0,0,41904
S,3977,15908020,471,0,0,45592
S,3978,15912020,468,0,0,49912
S,3979,15916020,471,0,0,54618
S,3980,15920020,473,0,0,58675
S,3981,15924020,468,0,0,62879
S,3982,15928020,462,0,0,1127
S,3983,15932020,461,0,0,5317
S,3984,15936024,465,0,0,9386
S,3985,15940020,467,0,0,14085
S,3986,15944024,463,0,0,18422
S,3987,15948024,458,0,0,22098
S,3988,15952020,457,0,0,26170
S,3989,15956020,461,0,0,30367
S,3990,15960020,463,0,0,35198
S,3991,15964020,458,0,0,39386
S,3992,15968020,452,0,0,43451
S,3993,15972020,450,0,0,47132
S,3994,15976020,454,0,0,51451
S,3995,15980024,457,0,0,56153
S,3996,15984020,453,0,0,60222
S,3997,15988020,448,0,0,64410
S,3998,15992024,447,0,0,2573
S,3999,15996020,451,0,0,6876
S,4000,16000020,454,0,0,10886
S,4001,16004024,448,0,0,15661
S,4002,16008020,440,0,0,19898
S,4003,16012020,439,0,0,23572
S,4004,16016020,443,0,0,27775
S,4005,16020020,445,0,0,31960
S,4006,16024020,440,0,0,36670
S,4007,16028020,433,0,0,40854
S,4008,16032020,432,0,0,45048
S,4009,16036020,436,0,0,48733
S,4010,16040020,439,0,0,52925
S,4011,16044020,434,0,0,49433
S,4012,16048024,427,0,0,53611
S,4013,16052020,425,0,0,57796
S,4014,16056020,429,0,0,61475
S,4015,16060024,432,0,0,146
S,4016,16064024,427,0,0,4342
S,4017,16068020,420,0,0,9044
S,4018,16072020,420,0,0,13239
S,4019,16076020,424,0,0,16922
S,4020,16080020,427,0,0,21118
S,4021,16084020,423,0,0,25299
S,4022,16088020,417,0,0,30006
S,4023,16092020,415,0,0,34217
S,4024,16096024,418,0,0,38391
S,4025,16100020,421,0,0,42077
S,4026,16104020,417,0,0,46266
S,4027,16108020,411,0,0,50977
S,4028,16112020,409,0,0,55108
S,4029,16116024,413,0,0,59373
S,4030,16120024,418,0,0,63025
S,4031,16124020,416,0,0,1693
S,4032,16128020,411,0,0,5817
S,4033,16132020,410,0,0,10521
S,4034,16136020,415,0,0,14847
S,4035,16140020,418,0,0,18531
S,4036,16144020,415,0,0,22585
S,4037,16148020,409,0,0,26782
S,4038,16152020,407,0,0,31603
S,4039,16156024,411,0,0,35794
S,4040,16160020,414,0,0,39860
S,4041,16164020,411,0,0,43536
S,4042,16168024,405,0,0,47857
S,4043,16172020,404,0,0,52573
S,4044,16176020,408,0,0,56630
S,4045,16180020,413,0,0,60818
S,4046,16184020,410,0,0,64630
S,4047,16188020,405,0,0,3289
S,4048,16192020,404,0,0,7335
S,4049,16196020,410,0,0,12040
S,4050,16200020,418,0,0,16339
S,4051,16204020,419,0,0,20083
S,4052,16208020,414,0,0,24105
S,4053,16212020,410,0,0,28300
S,4054,16216020,414,0,0,24939
S,4055,16220024,420,0,0,29180
S,4056,16224020,420,0,0,33183
S,4057,16228020,416,0,0,36922
S,4058,16232020,414,0,0,41191
S,4059,16236020,415,0,0,45895
S,4060,16240020,417,0,0,49950
S,4061,16244020,411,0,0,54149
S,4062,16248024,403,0,0,57954
S,4063,16252020,400,0,0,62156
S,4064,16256020,400,0,0,668
S,4065,16260020,401,0,0,5436
S,4066,16264020,396,0,0,9666
S,4067,16268020,389,0,0,13418
S,4068,16272020,386,0,0,17418
S,4069,16276020,390,0,0,21679
S,4070,16280024,393,0,0,26447
S,4071,16284020,390,0,0,30701
S,4072,16288020,384,0,0,34692
S,4073,16292020,382,0,0,38619
S,4074,16296020,386,0,0,42692
S,4075,16300024,390,0,0,47469
S,4076,16304020,389,0,0,51461
S,4077,16308020,383,0,0,55646
S,4078,16312020,381,0,0,59583
S,4079,16316020,385,0,0,63714
S,4080,16320020,390,0,0,2203
S,4081,16324020,386,0,0,6974
S,4082,16328020,378,0,0,11045
S,4083,16332020,372,0,0,14986
S,4084,16336020,376,0,0,19169
S,4085,16340020,394,0,0,23218
S,4086,16344024,427,0,0,28028
S,4087,16348020,477,0,0,32167
S,4088,16352024,542,0,0,36359
S,4089,16356024,609,0,0,40921
S,4090,16360020,642,0,0,45013
S,4091,16364020,602,0,0,48300
S,4092,16368020,515,0,0,52370
S,4093,16372024,443,0,0,57223
S,4094,16376020,399,0,0,61020
S,4095,16380020,378,0,0,65032
S,4096,16384020,369,0,0,4511
S,4097,16388020,363,0,0,7716
S,4098,16392024,362,0,0,3786
S,4099,16396024,366,0,0,16239
S,4100,16400020,370,0,0,12056
S,4101,16404020,367,0,0,24484
S,4102,16408020,361,0,0,19521
S,4103,16412020,360,0,0,31969
S,4104,16416020,365,0,0,27787
S,4105,16420020,369,0,0,40246
S,4106,16424020,368,0,0,36308
S,4107,16428020,362,0,0,47727
S,4108,16432020,361,0,0,43531
S,4109,16436020,365,0,0,55982
S,4110,16440020,371,0,0,52051
S,4111,16444020,371,0,0,64498
S,4112,16448020,367,0,0,60305
S,4113,16452020,365,0,0,6195
S,4114,16456020,369,0,0,2252
S,4115,16460020,373,0,0,14697
S,4116,16464020,373,0,0,10510
S,4117,16468020,368,0,0,22954
S,4118,16472020,367,0,0,18006
S,4119,16476020,371,0,0,30443
S,4120,16480024,376,0,0,26243
S,4121,16484020,376,0,0,38702
S,4122,16488020,372,0,0,34753
S,4123,16492020,371,0,0,46183
S,4124,16496020,374,0,0,41989
S,4125,16500020,379,0,0,54441
S,4126,16504020,379,0,0,50506
S,4127,16508020,375,0,0,62951
S,4128,16512020,374,0,0,58809
S,4129,16516020,378,0,0,4627
S,4130,16520020,383,0,0,757
S,4131,16524020,382,0,0,13141
S,4132,16528020,377,0,0,9013
S,4133,16532020,377,0,0,21396
S,4134,16536020,382,0,0,16496
S,4135,16540020,388,0,0,28715
S,4136,16544024,390,0,0,24650
S,4137,16548020,386,0,0,37347
S,4138,16552024,385,0,0,33039
S,4139,16556020,390,0,0,36517
S,4140,16560020,395,0,0,48847
S,4141,16564020,396,0,0,44649
S,4142,16568020,392,0,0,57230
S,4143,16572024,392,0,0,53027
S,4144,16576020,397,0,0,65365
S,4145,16580020,403,0,0,60650
S,4146,16584024,405,0,0,7170
S,4147,16588020,402,0,0,3496
S,4148,16592020,402,0,0,15823
S,4149,16596020,407,0,0,11627
S,4150,16600020,412,0,0,23171
S,4151,16604020,411,0,0,18981
S,4152,16608024,406,0,0,31307
S,4153,16612020,404,0,0,27620
S,4154,16616020,406,0,0,39685
S,4155,16620020,409,0,0,34987
S,4156,16624024,405,0,0,47308
S,4157,16628024,396,0,0,43124
S,4158,16632020,390,0,0,55697
S,4159,16636020,392,0,0,51518
