S,0,24,307,0,0,299
S,1,4020,335,0,0,3834
S,2,8020,343,0,0,7681
S,3,12020,321,0,0,12214
S,4,16020,299,0,0,16315
S,5,20020,312,0,0,20233
S,6,24024,340,0,0,23690
S,7,28020,349,0,0,27694
S,8,32020,325,0,0,31833
S,9,36020,298,0,0,36247
S,10,40020,307,0,0,40301
S,11,44024,335,0,0,43708
S,12,48020,346,0,0,47810
S,13,52024,323,0,0,51830
S,14,56020,298,0,0,56304
S,15,60020,309,0,0,60238
S,16,64020,336,0,0,64340
S,17,68020,344,0,0,2300
S,18,72020,322,0,0,6149
S,19,76020,299,0,0,10701
S,20,80020,309,0,0,14772
S,21,84020,331,0,0,18795
S,22,88020,337,0,0,22162
S,23,92020,310,0,0,26196
S,24,96020,275,0,0,30238
S,25,100020,269,0,0,34721
S,26,104020,288,0,0,38767
S,27,108020,292,0,0,42186
S,28,112020,260,0,0,46221
S,29,116020,230,0,0,50638
S,30,120020,246,0,0,54333
S,31,124020,288,0,0,58698
S,32,128020,306,0,0,62727
S,33,132024,281,0,0,642
S,34,136020,246,0,0,4994
S,35,140020,243,0,0,8742
S,36,144020,254,0,0,12876
S,37,148020,244,0,0,17127
S,38,152020,200,0,0,20792
S,39,156020,166,0,0,25079
S,40,160020,176,0,0,29070
S,41,164020,205,0,0,32850
S,42,168020,220,0,0,37024
S,43,172020,205,0,0,40720
S,44,176020,186,0,0,44800
S,45,180020,202,0,0,49105
S,46,184020,236,0,0,52756
S,47,188020,259,0,0,57178
S,48,192020,265,0,0,61231
S,49,196020,292,0,0,64675
S,50,200020,371,0,0,3094
S,51,204020,461,0,0,7433
S,52,208020,486,0,0,11589
S,53,212020,409,0,0,15771
S,54,216020,308,0,0,19157
S,55,220020,271,0,0,23119
S,56,224020,270,0,0,27169
S,57,228020,257,0,0,31631
S,58,232020,216,0,0,35509
S,59,236020,187,0,0,39287
S,60,240020,205,0,0,43366
S,61,244020,246,0,0,47612
S,62,248020,263,0,0,51694
S,63,252020,239,0,0,55463
S,64,256020,216,0,0,59535
S,65,260020,235,0,0,63261
S,66,264020,271,0,0,1565
S,67,268020,283,0,0,6056
S,68,272020,258,0,0,10198
S,69,276020,237,0,0,13976
S,70,280020,259,0,0,17557
S,71,284020,299,0,0,21532
S,72,288020,314,0,0,25698
S,73,292020,291,0,0,30170
S,74,296020,270,0,0,34068
S,75,300020,292,0,0,37535
S,76,304020,334,0,0,41618
S,77,308020,351,0,0,45602
S,78,312020,329,0,0,50135
S,79,316024,309,0,0,54022
S,80,320020,331,0,0,58123
S,81,324020,369,0,0,61584
S,82,328020,379,0,0,120
S,83,332020,350,0,0,4604
S,84,336020,327,0,0,8578
S,85,340020,349,0,0,12601
S,86,344020,388,0,0,15875
S,87,348020,396,0,0,20138
S,88,352020,362,0,0,24099
S,89,356020,335,0,0,28583
S,90,360020,355,0,0,32616
S,91,364020,395,0,0,35873
S,92,368020,402,0,0,40031
S,93,372020,367,0,0,44035
S,94,376020,338,0,0,48605
S,95,380020,358,0,0,52552
S,96,384024,396,0,0,56817
S,97,388020,404,0,0,59972
S,98,392020,369,0,0,64066
S,99,396020,341,0,0,3012
S,100,400020,362,0,0,7068
S,101,404020,402,0,0,11205
S,102,408020,411,0,0,14383
S,103,412020,374,0,0,18531
S,104,416020,343,0,0,22573
S,105,420020,364,0,0,27063
S,106,424020,405,0,0,31149
S,107,428020,414,0,0,34311
S,108,432020,376,0,0,38534
S,109,436020,345,0,0,42502
S,110,440024,365,0,0,47069
S,111,444020,405,0,0,51080
S,112,448020,412,0,0,55294
S,113,452020,375,0,0,58548
S,114,456020,344,0,0,62584
S,115,460020,364,0,0,1516
S,116,464020,401,0,0,5494
S,117,468020,405,0,0,9683
S,118,472020,363,0,0,13006
S,119,476020,330,0,0,16974
S,120,480020,347,0,0,21040
S,121,484020,383,0,0,25525
S,122,488020,388,0,0,29613
S,123,492024,350,0,0,32986
S,124,496020,319,0,0,37072
S,125,500020,338,0,0,40988
S,126,504020,374,0,0,45531
S,127,508020,377,0,0,49525
S,128,512020,342,0,0,53701
S,129,516020,315,0,0,56841
S,130,520020,335,0,0,61086
S,131,524020,372,0,0,65284
S,132,528024,377,0,0,3949
S,133,532020,342,0,0,8175
S,134,536020,315,0,0,11361
S,135,540020,334,0,0,15541
S,136,544020,371,0,0,19687
S,137,548020,375,0,0,23874
S,138,552024,339,0,0,28041
S,139,556020,312,0,0,31311
S,140,560020,334,0,0,35422
S,141,564020,373,0,0,39620
S,142,568020,380,0,0,43822
S,143,572020,343,0,0,48036
S,144,576020,315,0,0,52151
S,145,580020,337,0,0,55420
S,146,584024,375,0,0,59573
S,147,588024,381,0,0,63774
S,148,592020,343,0,0,2398
S,149,596020,316,0,0,6548
S,150,600020,338,0,0,9753
S,151,604020,377,0,0,13971
S,152,608020,384,0,0,17925
S,153,612020,346,0,0,22398
S,154,616020,317,0,0,26618
S,155,620020,337,0,0,29751
S,156,624020,376,0,0,33913
S,157,628020,382,0,0,38110
S,158,632020,345,0,0,42266
S,159,636020,317,0,0,46559
S,160,640020,340,0,0,50665
S,161,644020,379,0,0,53863
S,162,648020,384,0,0,57983
S,163,652020,347,0,0,62213
S,164,656020,318,0,0,772
S,165,660020,340,0,0,5071
S,166,664020,379,0,0,8195
S,167,668020,384,0,0,12377
S,168,672020,347,0,0,16621
S,169,676020,319,0,0,20776
S,170,680020,340,0,0,24992
S,171,684020,379,0,0,28206
S,172,688020,383,0,0,32333
S,173,692020,345,0,0,36554
S,174,696020,320,0,0,40752
S,175,700020,343,0,0,44934
S,176,704020,382,0,0,49104
S,177,708020,386,0,0,52365
S,178,712024,347,0,0,56507
S,179,716020,319,0,0,60786
S,180,720020,342,0,0,64892
S,181,724020,381,0,0,3575
S,182,728020,387,0,0,6890
S,183,732020,350,0,0,10902
S,184,736020,324,0,0,15075
S,185,740020,347,0,0,19293
S,186,744024,386,0,0,23403
S,187,748024,389,0,0,26829
S,188,752020,350,0,0,30845
S,189,756020,324,0,0,35014
S,190,760020,349,0,0,39228
S,191,764020,389,0,0,43333
S,192,768020,393,0,0,47446
S,193,772020,354,0,0,50716
S,194,776024,327,0,0,54998
S,195,780020,351,0,0,59235
S,196,784020,392,0,0,63443
S,197,788020,398,0,0,1907
S,198,792024,361,0,0,5243
S,199,796024,336,0,0,9443
S,200,800024,363,0,0,13495
S,201,804020,404,0,0,17893
S,202,808020,407,0,0,21765
S,203,812020,366,0,0,25181
S,204,816024,338,0,0,29194
S,205,820020,364,0,0,33433
S,206,824020,406,0,0,37760
S,207,828024,411,0,0,41760
S,208,832020,371,0,0,46011
S,209,836024,342,0,0,49203
S,210,840024,365,0,0,53483
S,211,844020,403,0,0,57784
S,212,848020,405,0,0,61913
S,213,852020,362,0,0,390
S,214,856024,334,0,0,3661
S,215,860020,357,0,0,7883
S,216,864020,396,0,0,11853
S,217,868024,399,0,0,16355
S,218,872020,360,0,0,20459
S,219,876020,335,0,0,23661
S,220,880020,360,0,0,27693
S,221,884020,400,0,0,31860
S,222,888020,402,0,0,36245
S,223,892024,363,0,0,40385
S,224,896020,338,0,0,44459
S,225,900020,364,0,0,47668
S,226,904024,403,0,0,51748
S,227,908020,405,0,0,56207
S,228,912020,365,0,0,60176
S,229,916020,339,0,0,64399
S,230,920020,363,0,0,2135
S,231,924020,399,0,0,6162
S,232,928020,397,0,0,10367
S,233,932020,362,0,0,14649
S,234,936024,353,0,0,18909
S,235,940024,416,0,0,22205
S,236,944024,508,0,0,26246
S,237,948020,563,0,0,30180
S,238,952020,554,0,0,33822
S,239,956020,510,0,0,38763
S,240,960020,467,0,0,42809
S,241,964020,428,0,0,46311
S,242,968024,381,0,0,50393
S,243,972020,321,0,0,54600
S,244,976020,292,0,0,58698
S,245,980020,322,0,0,62861
S,246,984020,368,0,0,605
S,247,988020,376,0,0,4852
S,248,992020,341,0,0,8886
S,249,996020,317,0,0,13183
S,250,1000020,343,0,0,17398
S,251,1004020,383,0,0,20607
S,252,1008020,387,0,0,24804
S,253,1012020,350,0,0,28824
S,254,1016020,328,0,0,33133
S,255,1020020,355,0,0,37351
S,256,1024020,395,0,0,41104
S,257,1028020,398,0,0,44852
S,258,1032020,359,0,0,48958
S,259,1036020,335,0,0,52919
S,260,1040020,361,0,0,57078
S,261,1044020,402,0,0,61100
S,262,1048020,406,0,0,64843
S,263,1052020,366,0,0,3341
S,264,1056020,341,0,0,7513
S,265,1060024,368,0,0,11473
S,266,1064020,407,0,0,15577
S,267,1068024,408,0,0,19323
S,268,1072020,368,0,0,23544
S,269,1076024,344,0,0,27517
S,270,1080020,371,0,0,31417
S,271,1084020,410,0,0,35569
S,272,1088020,411,0,0,39567
S,273,1092020,371,0,0,43462
S,274,1096020,348,0,0,47370
S,275,1100020,376,0,0,51343
S,276,1104020,415,0,0,55311
S,277,1108020,416,0,0,59537
S,278,1112020,375,0,0,63397
S,279,1116020,352,0,0,1810
S,280,1120020,382,0,0,5987
S,281,1124024,424,0,0,9752
S,282,1128020,424,0,0,14071
S,283,1132020,382,0,0,17792
S,284,1136020,357,0,0,22012
S,285,1140020,386,0,0,26042
S,286,1144020,427,0,0,29808
S,287,1148020,429,0,0,34007
S,288,1152020,388,0,0,38049
S,289,1156024,363,0,0,41955
S,290,1160024,393,0,0,46050
S,291,1164020,435,0,0,49781
S,292,1168020,436,0,0,53781
S,293,1172020,394,0,0,57994
S,294,1176020,369,0,0,61842
S,295,1180020,398,0,0,463
S,296,1184020,437,0,0,4507
S,297,1188024,437,0,0,8246
S,298,1192024,395,0,0,12523
S,299,1196020,371,0,0,16318
S,300,1200020,399,0,0,20261
S,301,1204020,438,0,0,24509
S,302,1208020,436,0,0,28252
S,303,1212020,391,0,0,32462
S,304,1216020,363,0,0,36445
S,305,1220020,390,0,0,40209
S,306,1224020,427,0,0,44511
S,307,1228020,423,0,0,48242
S,308,1232020,378,0,0,52424
S,309,1236020,352,0,0,56435
S,310,1240020,379,0,0,60299
S,311,1244020,417,0,0,64496
S,312,1248020,416,0,0,2975
S,313,1252024,374,0,0,6884
S,314,1256020,349,0,0,10784
S,315,1260020,376,0,0,14756
S,316,1264020,415,0,0,18724
S,317,1268020,416,0,0,22970
S,318,1272020,375,0,0,26766
S,319,1276020,351,0,0,30727
S,320,1280020,381,0,0,34874
S,321,1284020,420,0,0,38722
S,322,1288020,417,0,0,42916
S,323,1292020,375,0,0,46803
S,324,1296020,353,0,0,50850
S,325,1300020,383,0,0,54813
S,326,1304020,423,0,0,58662
S,327,1308020,421,0,0,62853
S,328,1312020,379,0,0,1331
S,329,1316020,354,0,0,5259
S,330,1320020,383,0,0,9333
S,331,1324020,421,0,0,13070
S,332,1328020,419,0,0,17263
S,333,1332024,377,0,0,21272
S,334,1336020,354,0,0,25324
S,335,1340020,384,0,0,29359
S,336,1344020,423,0,0,33527
S,337,1348024,421,0,0,37208
S,338,1352020,379,0,0,41321
S,339,1356020,355,0,0,45264
S,340,1360020,384,0,0,49236
S,341,1364020,425,0,0,53468
S,342,1368024,424,0,0,57138
S,343,1372020,381,0,0,61258
S,344,1376020,358,0,0,65342
S,345,1380020,388,0,0,3708
S,346,1384024,427,0,0,7868
S,347,1388020,425,0,0,11539
S,348,1392020,383,0,0,15778
S,349,1396020,360,0,0,19732
S,350,1400020,391,0,0,23576
S,351,1404020,429,0,0,27795
S,352,1408020,426,0,0,31947
S,353,1412024,383,0,0,35763
S,354,1416020,360,0,0,39755
S,355,1420020,389,0,0,43527
S,356,1424020,426,0,0,47695
S,357,1428020,424,0,0,51948
S,358,1432020,382,0,0,55769
S,359,1436020,360,0,0,59758
S,360,1440020,390,0,0,63983
S,361,1444020,428,0,0,2151
S,362,1448020,426,0,0,6274
S,363,1452020,383,0,0,10230
S,364,1456020,361,0,0,14215
S,365,1460024,391,0,0,18372
S,366,1464020,428,0,0,22016
S,367,1468020,424,0,0,26277
S,368,1472020,382,0,0,30220
S,369,1476020,360,0,0,34235
S,370,1480020,391,0,0,38327
S,371,1484020,428,0,0,42045
S,372,1488020,425,0,0,46175
S,373,1492020,381,0,0,50218
S,374,1496020,359,0,0,54227
S,375,1500020,390,0,0,58259
S,376,1504020,428,0,0,62422
S,377,1508020,424,0,0,626
S,378,1512020,382,0,0,4679
S,379,1516020,360,0,0,8688
S,380,1520020,390,0,0,12665
S,381,1524020,427,0,0,16885
S,382,1528020,423,0,0,20506
S,383,1532020,381,0,0,24673
S,384,1536020,360,0,0,28907
S,385,1540020,391,0,0,32677
S,386,1544020,429,0,0,36716
S,387,1548020,427,0,0,40651
S,388,1552020,387,0,0,44676
S,389,1556020,369,0,0,48855
S,390,1560020,401,0,0,52692
S,391,1564020,439,0,0,56659
S,392,1568020,434,0,0,60729
S,393,1572020,389,0,0,64687
S,394,1576020,369,0,0,3255
S,395,1580020,402,0,0,7157
S,396,1584024,442,0,0,11190
S,397,1588020,439,0,0,15126
S,398,1592020,393,0,0,19147
S,399,1596024,368,0,0,23199
S,400,1600020,397,0,0,27153
S,401,1604020,435,0,0,31118
S,402,1608020,430,0,0,35184
S,403,1612020,384,0,0,39167
S,404,1616020,361,0,0,43121
S,405,1620020,389,0,0,47164
S,406,1624020,426,0,0,51184
S,407,1628020,423,0,0,55132
S,408,1632020,381,0,0,59369
S,409,1636020,359,0,0,63058
S,410,1640020,388,0,0,1619
S,411,1644020,425,0,0,5599
S,412,1648024,421,0,0,9656
S,413,1652020,380,0,0,13772
S,414,1656024,360,0,0,17463
S,415,1660020,391,0,0,21621
S,416,1664020,429,0,0,25600
S,417,1668020,425,0,0,29605
S,418,1672020,384,0,0,33647
S,419,1676020,363,0,0,37413
S,420,1680020,393,0,0,41632
S,421,1684020,427,0,0,45603
S,422,1688020,418,0,0,49609
S,423,1692020,381,0,0,53687
S,424,1696020,381,0,0,57816
S,425,1700020,452,0,0,61632
S,426,1704020,543,0,0,1019
S,427,1708020,588,0,0,3081
S,428,1712020,570,0,0,7192
S,429,1716020,523,0,0,11400
S,430,1720020,481,0,0,16001
S,431,1724020,442,0,0,20091
S,432,1728020,397,0,0,24115
S,433,1732020,339,0,0,27980
S,434,1736020,321,0,0,32189
S,435,1740020,359,0,0,35898
S,436,1744020,402,0,0,40104
S,437,1748020,402,0,0,44041
S,438,1752020,363,0,0,47891
S,439,1756020,345,0,0,52096
S,440,1760020,378,0,0,56268
S,441,1764020,417,0,0,60086
S,442,1768020,413,0,0,64105
S,443,1772024,372,0,0,2348
S,444,1776020,355,0,0,6480
S,445,1780020,389,0,0,10519
S,446,1784020,426,0,0,14555
S,447,1788020,419,0,0,18547
S,448,1792020,375,0,0,22712
S,449,1796024,356,0,0,26374
S,450,1800020,389,0,0,30472
S,451,1804020,427,0,0,34439
S,452,1808020,421,0,0,38638
S,453,1812020,377,0,0,42643
S,454,1816020,358,0,0,46447
S,455,1820020,389,0,0,50477
S,456,1824020,427,0,0,54636
S,457,1828020,422,0,0,58560
S,458,1832020,381,0,0,62712
S,459,1836020,363,0,0,840
S,460,1840020,395,0,0,5071
S,461,1844024,433,0,0,9048
S,462,1848024,427,0,0,12961
S,463,1852020,385,0,0,16934
S,464,1856020,367,0,0,21175
S,465,1860020,400,0,0,25065
S,466,1864020,436,0,0,28974
S,467,1868020,431,0,0,32916
S,468,1872020,388,0,0,37080
S,469,1876020,370,0,0,41103
S,470,1880020,403,0,0,44941
S,471,1884020,441,0,0,48902
S,472,1888020,436,0,0,53092
S,473,1892020,395,0,0,57082
S,474,1896020,378,0,0,61160
S,475,1900020,412,0,0,64943
S,476,1904020,448,0,0,3477
S,477,1908020,442,0,0,7502
S,478,1912020,399,0,0,11416
S,479,1916020,382,0,0,15560
S,480,1920020,416,0,0,19529
S,481,1924020,454,0,0,23438
S,482,1928020,449,0,0,27498
S,483,1932020,406,0,0,31388
S,484,1936020,388,0,0,35561
S,485,1940020,421,0,0,39529
S,486,1944020,457,0,0,43494
S,487,1948020,450,0,0,47436
S,488,1952020,407,0,0,51574
S,489,1956020,389,0,0,55493
S,490,1960020,423,0,0,59396
S,491,1964020,458,0,0,63432
S,492,1968020,449,0,0,1959
S,493,1972020,404,0,0,5971
S,494,1976024,383,0,0,9815
S,495,1980020,414,0,0,13851
S,496,1984020,448,0,0,17978
S,497,1988020,439,0,0,21996
S,498,1992020,395,0,0,25907
S,499,1996020,374,0,0,29807
S,500,2000020,404,0,0,34026
S,501,2004020,438,0,0,37993
S,502,2008020,430,0,0,41874
S,503,2012024,387,0,0,45842
S,504,2016020,369,0,0,50051
S,505,2020020,401,0,0,53954
S,506,2024020,435,0,0,57859
S,507,2028020,427,0,0,61882
S,508,2032020,384,0,0,503
S,509,2036024,367,0,0,4533
S,510,2040020,398,0,0,8379
S,511,2044020,433,0,0,12325
S,512,2048020,426,0,0,17313
S,513,2052020,383,0,0,19669
S,514,2056024,366,0,0,23595
S,515,2060020,398,0,0,28006
S,516,2064020,432,0,0,32063
S,517,2068024,424,0,0,36234
S,518,2072020,381,0,0,40624
S,519,2076020,364,0,0,44544
S,520,2080020,397,0,0,48782
S,521,2084020,431,0,0,53005
S,522,2088020,423,0,0,57318
S,523,2092020,381,0,0,59549
S,524,2096020,365,0,0,63722
S,525,2100020,399,0,0,2198
S,526,2104024,434,0,0,6468
S,527,2108024,426,0,0,10749
S,528,2112020,383,0,0,14683
S,529,2116020,368,0,0,19189
S,530,2120020,401,0,0,23287
S,531,2124020,436,0,0,27507
S,532,2128020,428,0,0,31500
S,533,2132020,383,0,0,35710
S,534,2136020,363,0,0,38025
S,535,2140020,393,0,0,42186
S,536,2144020,427,0,0,46215
S,537,2148020,419,0,0,50478
S,538,2152020,378,0,0,54548
S,539,2156020,363,0,0,59044
S,540,2160020,395,0,0,63011
S,541,2164020,429,0,0,1701
S,542,2168024,420,0,0,5955
S,543,2172020,378,0,0,10032
S,544,2176020,361,0,0,14204
S,545,2180020,393,0,0,16445
S,546,2184020,428,0,0,20731
S,547,2188020,418,0,0,24916
S,548,2192020,375,0,0,29158
S,549,2196020,359,0,0,33111
S,550,2200020,391,0,0,37460
S,551,2204020,424,0,0,41690
S,552,2208020,416,0,0,45757
S,553,2212020,373,0,0,50121
S,554,2216020,357,0,0,54074
S,555,2220020,390,0,0,56440
S,556,2224020,421,0,0,60476
S,557,2228020,411,0,0,64675
S,558,2232020,366,0,0,3510
S,559,2236020,350,0,0,7463
S,560,2240020,383,0,0,11641
S,561,2244020,416,0,0,15879
S,562,2248020,406,0,0,20178
S,563,2252020,361,0,0,24460
S,564,2256020,345,0,0,28635
S,565,2260020,377,0,0,32602
S,566,2264020,411,0,0,34907
S,567,2268020,401,0,0,39152
S,568,2272020,358,0,0,43112
S,569,2276020,343,0,0,47608
S,570,2280020,374,0,0,51514
S,571,2284020,407,0,0,55930
S,572,2288020,399,0,0,59909
S,573,2292024,355,0,0,64068
S,574,2296020,339,0,0,2970
S,575,2300020,372,0,0,6940
S,576,2304020,407,0,0,11232
S,577,2308020,397,0,0,13403
S,578,2312020,354,0,0,17495
S,579,2316020,339,0,0,21959
S,580,2320020,372,0,0,25991
S,581,2324020,406,0,0,30148
S,582,2328020,398,0,0,34367
S,583,2332020,356,0,0,38516
S,584,2336020,342,0,0,42537
S,585,2340020,378,0,0,47012
S,586,2344020,413,0,0,51104
S,587,2348020,404,0,0,53256
S,588,2352020,362,0,0,57489
S,589,2356020,346,0,0,61440
S,590,2360020,381,0,0,451
S,591,2364024,415,0,0,4492
S,592,2368020,404,0,0,8692
S,593,2372020,362,0,0,12971
S,594,2376020,348,0,0,17022
S,595,2380020,380,0,0,21503
S,596,2384020,410,0,0,25470
S,597,2388020,397,0,0,29640
S,598,2392020,352,0,0,31942
S,599,2396020,336,0,0,35927
S,600,2400020,366,0,0,39942
S,601,2404020,398,0,0,44359
S,602,2408020,388,0,0,48558
S,603,2412020,345,0,0,52946
S,604,2416020,332,0,0,56992
S,605,2420020,366,0,0,60963
S,606,2424020,398,0,0,65312
S,607,2428020,388,0,0,3978
S,608,2432020,347,0,0,7946
S,609,2436020,334,0,0,10430
S,610,2440020,366,0,0,14461
S,611,2444020,396,0,0,18750
S,612,2448020,383,0,0,22954
S,613,2452020,339,0,0,26919
S,614,2456020,325,0,0,31442
S,615,2460020,358,0,0,35408
S,616,2464020,389,0,0,39644
S,617,2468020,376,0,0,43904
S,618,2472020,330,0,0,47953
S,619,2476020,316,0,0,50310
S,620,2480020,360,0,0,54453
S,621,2484020,421,0,0,58585
S,622,2488020,458,0,0,62805
S,623,2492020,470,0,0,1515
S,624,2496020,501,0,0,5559
S,625,2500020,545,0,0,9666
S,626,2504020,529,0,0,13585
S,627,2508020,432,0,0,18193
S,628,2512020,326,0,0,22400
S,629,2516020,283,0,0,26492
S,630,2520020,307,0,0,28855
S,631,2524020,344,0,0,32893
S,632,2528020,345,0,0,36883
S,633,2532020,313,0,0,41426
S,634,2536020,303,0,0,45351
S,635,2540024,336,0,0,49909
S,636,2544020,368,0,0,53950
S,637,2548020,361,0,0,57862
S,638,2552020,325,0,0,62409
S,639,2556020,315,0,0,791
S,640,2560020,348,0,0,5103
S,641,2564020,380,0,0,7278
S,642,2568020,371,0,0,11394
S,643,2572020,333,0,0,15645
S,644,2576020,322,0,0,19829
S,645,2580020,356,0,0,24050
S,646,2584020,389,0,0,28400
S,647,2588020,380,0,0,32424
S,648,2592020,340,0,0,36591
S,649,2596020,329,0,0,40787
S,650,2600020,362,0,0,44947
S,651,2604020,395,0,0,47315
S,652,2608020,384,0,0,51391
S,653,2612024,344,0,0,55498
S,654,2616020,332,0,0,59697
S,655,2620020,367,0,0,63923
S,656,2624024,398,0,0,2350
S,657,2628020,388,0,0,6793
S,658,2632024,346,0,0,10936
S,659,2636024,333,0,0,15118
S,660,2640020,368,0,0,19288
S,661,2644024,402,0,0,23319
S,662,2648024,392,0,0,25838
S,663,2652020,350,0,0,29845
S,664,2656020,339,0,0,34039
S,665,2660020,375,0,0,38258
S,666,2664020,408,0,0,42366
S,667,2668024,397,0,0,46790
S,668,2672020,355,0,0,50755
S,669,2676020,345,0,0,55000
S,670,2680020,382,0,0,59164
S,671,2684020,415,0,0,63324
S,672,2688020,404,0,0,1801
S,673,2692020,363,0,0,4183
S,674,2696020,353,0,0,8382
S,675,2700020,392,0,0,12790
S,676,2704020,426,0,0,16819
S,677,2708024,414,0,0,20778
S,678,2712020,370,0,0,25129
S,679,2716020,360,0,0,29330
S,680,2720020,398,0,0,33307
S,681,2724020,432,0,0,37764
S,682,2728020,419,0,0,41844
S,683,2732024,375,0,0,44045
S,684,2736020,365,0,0,48252
S,685,2740024,402,0,0,52270
S,686,2744020,435,0,0,56800
S,687,2748020,421,0,0,60759
S,688,2752020,375,0,0,65018
S,689,2756020,362,0,0,3653
S,690,2760020,397,0,0,7745
S,691,2764020,427,0,0,12230
S,692,2768020,411,0,0,16273
S,693,2772020,363,0,0,20416
S,694,2776020,348,0,0,22548
S,695,2780020,383,0,0,26774
S,696,2784020,416,0,0,30758
S,697,2788020,401,0,0,35254
S,698,2792020,356,0,0,39328
S,699,2796020,345,0,0,43580
S,700,2800020,381,0,0,47743
S,701,2804020,413,0,0,51774
S,702,2808020,399,0,0,56271
S,703,2812020,357,0,0,60292
S,704,2816024,347,0,0,64425
S,705,2820020,384,0,0,1246
S,706,2824020,416,0,0,5149
S,707,2828024,402,0,0,9602
S,708,2832024,359,0,0,13584
S,709,2836020,350,0,0,17796
S,710,2840020,387,0,0,22202
S,711,2844020,420,0,0,26172
S,712,2848020,407,0,0,30304
S,713,2852020,365,0,0,34619
S,714,2856020,356,0,0,38865
S,715,2860020,394,0,0,41118
S,716,2864020,426,0,0,45273
S,717,2868020,411,0,0,49225
S,718,2872020,368,0,0,53569
S,719,2876020,358,0,0,57846
S,720,2880020,397,0,0,61794
S,721,2884020,429,0,0,740
S,722,2888020,413,0,0,4663
S,723,2892020,368,0,0,9083
S,724,2896020,360,0,0,13060
S,725,2900020,399,0,0,17218
S,726,2904020,431,0,0,19585
S,727,2908020,415,0,0,23568
S,728,2912020,370,0,0,27794
S,729,2916020,362,0,0,32043
S,730,2920020,401,0,0,36147
S,731,2924020,432,0,0,40627
S,732,2928020,417,0,0,44741
S,733,2932020,374,0,0,48819
S,734,2936020,365,0,0,53067
S,735,2940020,403,0,0,57108
S,736,2944020,435,0,0,61291
S,737,2948020,418,0,0,63707
S,738,2952020,374,0,0,2285
S,739,2956020,365,0,0,6487
S,740,2960020,403,0,0,10702
S,741,2964020,436,0,0,14664
S,742,2968020,419,0,0,19132
S,743,2972020,372,0,0,23242
S,744,2976020,363,0,0,27322
S,745,2980020,402,0,0,31714
S,746,2984020,434,0,0,35617
S,747,2988020,420,0,0,38038
S,748,2992020,375,0,0,42018
S,749,2996020,367,0,0,46235
S,750,3000020,405,0,0,50562
S,751,3004020,437,0,0,54531
S,752,3008020,422,0,0,58735
S,753,3012020,376,0,0,62992
S,754,3016024,368,0,0,1780
S,755,3020020,407,0,0,6078
S,756,3024020,439,0,0,10233
S,757,3028020,422,0,0,14153
S,758,3032020,377,0,0,16501
S,759,3036020,368,0,0,20701
S,760,3040020,406,0,0,24660
S,761,3044020,438,0,0,29141
S,762,3048020,422,0,0,33062
S,763,3052020,377,0,0,37464
S,764,3056020,368,0,0,41526
S,765,3060020,408,0,0,45695
S,766,3064020,440,0,0,50108
S,767,3068020,422,0,0,54019
S,768,3072024,375,0,0,57921
S,769,3076024,364,0,0,60923
S,770,3080020,403,0,0,65003
S,771,3084020,435,0,0,3179
S,772,3088020,419,0,0,7196
S,773,3092020,373,0,0,11371
S,774,3096020,366,0,0,16275
S,775,3100020,406,0,0,20426
S,776,3104020,436,0,0,24455
S,777,3108020,417,0,0,28211
S,778,3112020,371,0,0,32258
S,779,3116020,363,0,0,35259
S,780,3120020,402,0,0,39205
S,781,3124020,433,0,0,43431
S,782,3128020,416,0,0,47189
S,783,3132020,372,0,0,51232
S,784,3136020,365,0,0,55366
S,785,3140020,403,0,0,60185
S,786,3144020,434,0,0,64475
S,787,3148020,417,0,0,2678
S,788,3152020,374,0,0,6854
S,789,3156020,368,0,0,10849
S,790,3160020,410,0,0,13672
S,791,3164020,442,0,0,17897
S,792,3168024,423,0,0,21911
S,793,3172020,377,0,0,25828
S,794,3176020,371,0,0,29709
S,795,3180020,412,0,0,34627
S,796,3184020,445,0,0,38661
S,797,3188020,429,0,0,42932
S,798,3192020,383,0,0,46725
S,799,3196024,372,0,0,50723
S,800,3200020,408,0,0,54940
S,801,3204020,437,0,0,57616
S,802,3208020,421,0,0,61923
S,803,3212020,375,0,0,145
S,804,3216020,365,0,0,4332
S,805,3220020,401,0,0,8369
S,806,3224024,430,0,0,13153
S,807,3228020,414,0,0,17404
S,808,3232020,371,0,0,21374
S,809,3236020,365,0,0,25281
S,810,3240020,401,0,0,29406
S,811,3244020,430,0,0,32064
S,812,3248020,414,0,0,36119
S,813,3252020,371,0,0,40283
S,814,3256020,364,0,0,44199
S,815,3260020,403,0,0,48377
S,816,3264020,433,0,0,52388
S,817,3268020,416,0,0,57108
S,818,3272020,373,0,0,61218
S,819,3276020,366,0,0,65176
S,820,3280024,404,0,0,3594
S,821,3284020,431,0,0,7836
S,822,3288020,409,0,0,10569
S,823,3292020,367,0,0,14622
S,824,3296020,375,0,0,18793
S,825,3300020,446,0,0,22529
S,826,3304020,523,0,0,27479
S,827,3308020,555,0,0,30934
S,828,3312020,545,0,0,35003
S,829,3316020,531,0,0,38952
S,830,3320020,508,0,0,43556
S,831,3324020,458,0,0,47795
S,832,3328020,389,0,0,51939
S,833,3332020,325,0,0,54658
S,834,3336024,316,0,0,58644
S,835,3340020,360,0,0,62701
S,836,3344020,398,0,0,1133
S,837,3348024,387,0,0,5325
S,838,3352020,350,0,0,10239
S,839,3356020,346,0,0,14170
S,840,3360020,385,0,0,18414
S,841,3364020,415,0,0,22097
S,842,3368020,399,0,0,26274
S,843,3372024,358,0,0,29158
S,844,3376020,354,0,0,33161
S,845,3380020,393,0,0,37315
S,846,3384020,422,0,0,40975
S,847,3388020,406,0,0,45214
S,848,3392020,364,0,0,49179
S,849,3396020,360,0,0,54206
S,850,3400020,400,0,0,58277
S,851,3404020,430,0,0,62010
S,852,3408020,411,0,0,623
S,853,3412020,366,0,0,4667
S,854,3416020,360,0,0,7646
S,855,3420024,400,0,0,11659
S,856,3424020,429,0,0,15829
S,857,3428020,411,0,0,19522
S,858,3432020,367,0,0,23637
S,859,3436020,361,0,0,28658
S,860,3440020,399,0,0,32627
S,861,3444020,427,0,0,36854
S,862,3448020,409,0,0,40487
S,863,3452020,365,0,0,44658
S,864,3456020,361,0,0,48681
S,865,3460020,400,0,0,51569
S,866,3464020,429,0,0,55727
S,867,3468020,410,0,0,59449
S,868,3472020,367,0,0,63659
S,869,3476020,362,0,0,2062
S,870,3480020,400,0,0,6935
S,871,3484020,429,0,0,11147
S,872,3488020,411,0,0,15314
S,873,3492020,371,0,0,19099
S,874,3496020,368,0,0,23163
S,875,3500020,408,0,0,25906
S,876,3504020,438,0,0,30075
S,877,3508020,419,0,0,34255
S,878,3512020,376,0,0,38135
S,879,3516024,374,0,0,42068
S,880,3520020,414,0,0,46287
S,881,3524020,443,0,0,51019
S,882,3528020,424,0,0,55227
S,883,3532020,382,0,0,59084
S,884,3536020,378,0,0,63151
S,885,3540020,417,0,0,1750
S,886,3544020,446,0,0,4394
S,887,3548020,425,0,0,8604
S,888,3552020,382,0,0,12580
S,889,3556020,377,0,0,16514
S,890,3560020,416,0,0,20664
S,891,3564020,442,0,0,25347
S,892,3568020,418,0,0,29564
S,893,3572020,370,0,0,33549
S,894,3576020,364,0,0,37616
S,895,3580020,403,0,0,41646
S,896,3584020,430,0,0,45580
S,897,3588024,408,0,0,48535
S,898,3592020,361,0,0,52617
S,899,3596020,352,0,0,56353
S,900,3600020,387,0,0,60581
S,901,3604020,412,0,0,64539
S,902,3608020,393,0,0,4076
S,903,3612020,351,0,0,8091
S,904,3616020,347,0,0,12272
S,905,3620020,384,0,0,16010
S,906,3624020,412,0,0,20085
S,907,3628020,390,0,0,22990
S,908,3632020,349,0,0,26994
S,909,3636020,346,0,0,31188
S,910,3640020,384,0,0,35053
S,911,3644020,411,0,0,38999
S,912,3648020,391,0,0,43060
S,913,3652020,350,0,0,47948
S,914,3656024,348,0,0,52129
S,915,3660020,386,0,0,56018
S,916,3664020,412,0,0,60075
S,917,3668020,393,0,0,64031
S,918,3672020,352,0,0,1306
S,919,3676024,349,0,0,5514
S,920,3680020,388,0,0,9520
S,921,3684020,415,0,0,13450
S,922,3688020,395,0,0,17533
S,923,3692020,352,0,0,22327
S,924,3696020,349,0,0,26477
S,925,3700020,388,0,0,30485
S,926,3704020,416,0,0,34514
S,927,3708020,397,0,0,38494
S,928,3712020,354,0,0,42734
S,929,3716020,352,0,0,45389
S,930,3720020,390,0,0,49480
S,931,3724020,416,0,0,53455
S,932,3728020,395,0,0,57475
S,933,3732020,352,0,0,61641
S,934,3736020,349,0,0,790
S,935,3740020,388,0,0,4974
S,936,3744020,415,0,0,8986
S,937,3748020,394,0,0,12974
S,938,3752020,353,0,0,17062
S,939,3756020,351,0,0,19769
S,940,3760020,390,0,0,23943
S,941,3764020,416,0,0,27904
S,942,3768020,396,0,0,31951
S,943,3772020,353,0,0,35971
S,944,3776020,349,0,0,40128
S,945,3780020,387,0,0,44991
S,946,3784020,414,0,0,48961
S,947,3788020,393,0,0,52983
S,948,3792024,351,0,0,56906
S,949,3796020,349,0,0,61157
S,950,3800020,387,0,0,63960
S,951,3804020,410,0,0,2403
S,952,3808020,389,0,0,6419
S,953,3812020,347,0,0,10348
S,954,3816020,345,0,0,14477
S,955,3820020,384,0,0,19445
S,956,3824020,411,0,0,23433
S,957,3828020,391,0,0,27444
S,958,3832024,350,0,0,31234
S,959,3836020,348,0,0,35501
S,960,3840020,387,0,0,39533
S,961,3844024,412,0,0,42463
S,962,3848020,392,0,0,46372
S,963,3852020,351,0,0,50258
S,964,3856020,350,0,0,54324
S,965,3860020,389,0,0,58446
S,966,3864020,413,0,0,63413
S,967,3868020,391,0,0,1807
S,968,3872020,350,0,0,6073
S,969,3876020,351,0,0,9753
S,970,3880020,390,0,0,13859
S,971,3884020,415,0,0,16795
S,972,3888020,393,0,0,20970
S,973,3892020,351,0,0,24989
S,974,3896020,351,0,0,28798
S,975,3900020,389,0,0,32773
S,976,3904020,415,0,0,36960
S,977,3908020,395,0,0,41941
S,978,3912020,354,0,0,46047
S,979,3916020,353,0,0,49789
S,980,3920024,391,0,0,54000
S,981,3924020,415,0,0,57925
S,982,3928020,394,0,0,60851
S,983,3932020,353,0,0,65017
S,984,3936024,352,0,0,3484
S,985,3940024,391,0,0,7386
S,986,3944020,417,0,0,11283
S,987,3948020,398,0,0,16285
S,988,3952020,359,0,0,20243
S,989,3956020,361,0,0,24508
S,990,3960020,402,0,0,28324
S,991,3964020,425,0,0,32318
S,992,3968020,400,0,0,36440
S,993,3972020,360,0,0,39169
S,994,3976020,362,0,0,43488
S,995,3980020,403,0,0,47288
S,996,3984020,428,0,0,51424
S,997,3988020,404,0,0,55417
S,998,3992020,358,0,0,60264
S,999,3996020,355,0,0,64460
S,1000,4000020,392,0,0,2889
S,1001,4004020,416,0,0,6848
S,1002,4008020,391,0,0,10756
S,1003,4012020,348,0,0,13694
S,1004,4016020,346,0,0,17695
S,1005,4020020,385,0,0,21861
S,1006,4024020,409,0,0,25758
S,1007,4028020,387,0,0,29733
S,1008,4032020,345,0,0,33920
S,1009,4036020,343,0,0,38703
S,1010,4040024,382,0,0,42985
S,1011,4044020,407,0,0,46765
S,1012,4048020,383,0,0,50722
S,1013,4052020,341,0,0,54953
S,1014,4056020,341,0,0,57674
S,1015,4060020,380,0,0,61890
S,1016,4064020,404,0,0,326
S,1017,4068020,381,0,0,4110
S,1018,4072020,340,0,0,8388
S,1019,4076020,338,0,0,13155
S,1020,4080020,373,0,0,17187
S,1021,4084020,395,0,0,21372
S,1022,4088024,379,0,0,25187
S,1023,4092020,360,0,0,29405
S,1024,4096020,401,0,0,34235
S,1025,4100020,496,0,0,35451
S,1026,4104020,570,0,0,39250
S,1027,4108020,572,0,0,43253
S,1028,4112020,505,0,0,47959
S,1029,4116024,434,0,0,52145
S,1030,4120024,401,0,0,55409
S,1031,4124024,385,0,0,59584
S,1032,4128020,348,0,0,63614
S,1033,4132020,310,0,0,2484
S,1034,4136020,319,0,0,6494
S,1035,4140020,365,0,0,11949
S,1036,4144020,395,0,0,15916
S,1037,4148020,376,0,0,20094
S,1038,4152020,339,0,0,24502
S,1039,4156020,341,0,0,28433
S,1040,4160020,381,0,0,32582
S,1041,4164020,408,0,0,35842
S,1042,4168020,389,0,0,40188
S,1043,4172020,352,0,0,44472
S,1044,4176020,357,0,0,48602
S,1045,4180020,399,0,0,52625
S,1046,4184020,423,0,0,53850
S,1047,4188020,400,0,0,58060
S,1048,4192020,360,0,0,62043
S,1049,4196020,362,0,0,903
S,1050,4200020,405,0,0,5019
S,1051,4204020,431,0,0,8192
S,1052,4208020,409,0,0,12369
S,1053,4212020,369,0,0,16408
S,1054,4216020,372,0,0,20990
S,1055,4220020,415,0,0,25012
S,1056,4224020,442,0,0,29134
S,1057,4228020,418,0,0,34423
S,1058,4232020,378,0,0,38476
S,1059,4236020,382,0,0,42985
S,1060,4240024,426,0,0,46934
S,1061,4244020,451,0,0,51090
S,1062,4248020,427,0,0,54297
S,1063,4252020,385,0,0,58514
S,1064,4256024,388,0,0,62708
S,1065,4260020,430,0,0,1394
S,1066,4264020,455,0,0,5624
S,1067,4268024,431,0,0,6717
S,1068,4272020,391,0,0,10878
S,1069,4276020,396,0,0,15060
S,1070,4280020,438,0,0,19213
S,1071,4284020,463,0,0,23509
S,1072,4288020,440,0,0,27613
S,1073,4292020,399,0,0,30795
S,1074,4296020,402,0,0,34997
S,1075,4300020,445,0,0,39227
S,1076,4304020,471,0,0,43318
S,1077,4308020,446,0,0,47614
S,1078,4312020,404,0,0,52791
S,1079,4316020,408,0,0,56986
S,1080,4320024,451,0,0,61090
S,1081,4324024,476,0,0,65308
S,1082,4328024,451,0,0,4067
S,1083,4332020,408,0,0,7189
S,1084,4336020,410,0,0,11376
S,1085,4340020,453,0,0,15502
S,1086,4344020,478,0,0,19830
S,1087,4348024,451,0,0,24006
S,1088,4352020,408,0,0,28046
S,1089,4356020,410,0,0,29229
S,1090,4360020,451,0,0,33431
S,1091,4364020,474,0,0,37679
S,1092,4368020,445,0,0,41775
S,1093,4372020,399,0,0,46012
S,1094,4376020,402,0,0,49218
S,1095,4380020,443,0,0,53450
S,1096,4384024,464,0,0,57538
S,1097,4388020,434,0,0,61709
S,1098,4392020,389,0,0,472
S,1099,4396024,391,0,0,5751
S,1100,4400020,432,0,0,9771
S,1101,4404020,453,0,0,14079
S,1102,4408020,425,0,0,18288
S,1103,4412020,382,0,0,22278
S,1104,4416020,385,0,0,26502
S,1105,4420020,429,0,0,29707
S,1106,4424020,452,0,0,33921
S,1107,4428020,426,0,0,38222
S,1108,4432020,383,0,0,42492
S,1109,4436020,387,0,0,46497
S,1110,4440020,429,0,0,47724
S,1111,4444020,453,0,0,51877
S,1112,4448020,428,0,0,55971
S,1113,4452020,385,0,0,60207
S,1114,4456020,388,0,0,64457
S,1115,4460020,431,0,0,2116
S,1116,4464020,455,0,0,6219
S,1117,4468024,428,0,0,10381
S,1118,4472020,387,0,0,14669
S,1119,4476020,391,0,0,18920
S,1120,4480020,433,0,0,22913
S,1121,4484020,456,0,0,28249
S,1122,4488020,429,0,0,32479
S,1123,4492020,386,0,0,36689
S,1124,4496024,388,0,0,40764
S,1125,4500020,431,0,0,44986
S,1126,4504020,454,0,0,48176
S,1127,4508020,426,0,0,52477
S,1128,4512020,382,0,0,56390
S,1129,4516020,386,0,0,60699
S,1130,4520024,428,0,0,64986
S,1131,4524020,451,0,0,537
S,1132,4528024,422,0,0,4631
S,1133,4532020,379,0,0,8807
S,1134,4536020,382,0,0,13185
S,1135,4540024,424,0,0,17402
S,1136,4544020,449,0,0,21472
S,1137,4548024,421,0,0,24617
S,1138,4552020,376,0,0,28699
S,1139,4556024,380,0,0,33202
S,1140,4560020,423,0,0,37122
S,1141,4564020,446,0,0,41402
S,1142,4568020,418,0,0,46661
S,1143,4572020,374,0,0,50736
S,1144,4576020,379,0,0,54866
S,1145,4580024,423,0,0,59171
S,1146,4584020,446,0,0,63445
S,1147,4588020,417,0,0,1128
S,1148,4592020,373,0,0,5339
S,1149,4596020,378,0,0,9333
S,1150,4600020,422,0,0,13642
S,1151,4604020,444,0,0,17905
S,1152,4608020,414,0,0,21836
S,1153,4612020,370,0,0,23041
S,1154,4616020,376,0,0,27368
S,1155,4620020,421,0,0,31636
S,1156,4624020,444,0,0,35818
S,1157,4628020,415,0,0,39784
S,1158,4632020,371,0,0,43111
S,1159,4636020,375,0,0,47298
S,1160,4640020,420,0,0,51326
S,1161,4644020,444,0,0,55751
S,1162,4648020,414,0,0,59654
S,1163,4652020,370,0,0,65099
S,1164,4656020,375,0,0,3624
S,1165,4660020,419,0,0,7773
S,1166,4664020,442,0,0,12199
S,1167,4668020,412,0,0,16160
S,1168,4672024,368,0,0,20415
S,1169,4676020,373,0,0,23575
S,1170,4680020,417,0,0,27680
S,1171,4684020,440,0,0,32152
S,1172,4688020,410,0,0,36317
S,1173,4692020,368,0,0,40342
S,1174,4696020,374,0,0,41587
S,1175,4700020,417,0,0,45573
S,1176,4704020,439,0,0,49788
S,1177,4708024,409,0,0,54271
S,1178,4712020,366,0,0,58343
S,1179,4716020,372,0,0,61532
S,1180,4720020,417,0,0,225
S,1181,4724020,441,0,0,4184
S,1182,4728020,412,0,0,8606
S,1183,4732020,370,0,0,12753
S,1184,4736020,379,0,0,16775
S,1185,4740020,424,0,0,22261
S,1186,4744020,444,0,0,26114
S,1187,4748020,412,0,0,30595
S,1188,4752020,369,0,0,34569
S,1189,4756024,379,0,0,38830
S,1190,4760020,426,0,0,42128
S,1191,4764020,447,0,0,46116
S,1192,4768020,414,0,0,50282
S,1193,4772024,367,0,0,54582
S,1194,4776024,371,0,0,58825
S,1195,4780024,415,0,0,60036
S,1196,4784024,436,0,0,64200
S,1197,4788020,404,0,0,2628
S,1198,4792020,360,0,0,7003
S,1199,4796020,366,0,0,11260
S,1200,4800020,411,0,0,15222
S,1201,4804020,432,0,0,18684
S,1202,4808024,401,0,0,22578
S,1203,4812020,358,0,0,26984
S,1204,4816024,366,0,0,30987
S,1205,4820020,412,0,0,35156
S,1206,4824020,434,0,0,40601
S,1207,4828020,403,0,0,44569
S,1208,4832024,360,0,0,48769
S,1209,4836020,367,0,0,53035
S,1210,4840020,412,0,0,57147
S,1211,4844020,434,0,0,60596
S,1212,4848020,404,0,0,64757
S,1213,4852024,361,0,0,3238
S,1214,4856020,365,0,0,7501
S,1215,4860020,404,0,0,11541
S,1216,4864020,427,0,0,15669
S,1217,4868020,411,0,0,17060
S,1218,4872020,400,0,0,21068
S,1219,4876020,455,0,0,25530
S,1220,4880020,552,0,0,28722
S,1221,4884020,611,0,0,32984
S,1222,4888020,578,0,0,37658
S,1223,4892020,474,0,0,40995
S,1224,4896024,397,0,0,45079
S,1225,4900020,388,0,0,49587
S,1226,4904020,389,0,0,53585
S,1227,4908024,359,0,0,58910
S,1228,4912024,328,0,0,63062
S,1229,4916020,344,0,0,1770
S,1230,4920020,390,0,0,6103
S,1231,4924020,413,0,0,10093
S,1232,4928024,387,0,0,14080
S,1233,4932020,348,0,0,17522
S,1234,4936024,358,0,0,21671
S,1235,4940020,403,0,0,26111
S,1236,4944020,425,0,0,30114
S,1237,4948020,397,0,0,34087
S,1238,4952020,357,0,0,35372
S,1239,4956020,367,0,0,39559
S,1240,4960020,411,0,0,43548
S,1241,4964020,432,0,0,48022
S,1242,4968024,403,0,0,52058
S,1243,4972020,363,0,0,55311
S,1244,4976020,372,0,0,59511
S,1245,4980020,415,0,0,63549
S,1246,4984020,435,0,0,2549
S,1247,4988020,407,0,0,6512
S,1248,4992020,367,0,0,10711
S,1249,4996020,376,0,0,15969
S,1250,5000020,420,0,0,20062
S,1251,5004020,440,0,0,24547
S,1252,5008020,410,0,0,28582
S,1253,5012020,369,0,0,32748
S,1254,5016020,377,0,0,35847
S,1255,5020020,422,0,0,40057
S,1256,5024024,442,0,0,44038
S,1257,5028020,412,0,0,48525
S,1258,5032024,372,0,0,52618
S,1259,5036020,380,0,0,53807
S,1260,5040020,423,0,0,58003
S,1261,5044020,444,0,0,61993
S,1262,5048020,415,0,0,1000
S,1263,5052020,376,0,0,5038
S,1264,5056020,385,0,0,9000
S,1265,5060020,428,0,0,12452
S,1266,5064020,449,0,0,16426
S,1267,5068020,418,0,0,20968
S,1268,5072024,378,0,0,24923
S,1269,5076020,388,0,0,28936
S,1270,5080024,433,0,0,34514
S,1271,5084020,456,0,0,38406
S,1272,5088020,426,0,0,42507
S,1273,5092024,386,0,0,46990
S,1274,5096020,394,0,0,51049
S,1275,5100020,437,0,0,54519
S,1276,5104020,457,0,0,58604
S,1277,5108020,428,0,0,62504
S,1278,5112020,387,0,0,1511
S,1279,5116024,397,0,0,5444
S,1280,5120020,440,0,0,9442
S,1281,5124020,459,0,0,11056
S,1282,5128024,428,0,0,15288
S,1283,5132020,387,0,0,19002
S,1284,5136020,396,0,0,23122
S,1285,5140020,438,0,0,27337
S,1286,5144024,456,0,0,31064
S,1287,5148024,423,0,0,35222
S,1288,5152020,379,0,0,39209
S,1289,5156020,385,0,0,43122
S,1290,5160020,426,0,0,47290
S,1291,5164020,443,0,0,53002
S,1292,5168020,410,0,0,57164
S,1293,5172020,367,0,0,61208
S,1294,5176020,375,0,0,65251
S,1295,5180024,417,0,0,3737
S,1296,5184020,435,0,0,7928
S,1297,5188020,404,0,0,11646
S,1298,5192020,364,0,0,15717
S,1299,5196020,373,0,0,19677
S,1300,5200024,415,0,0,23644
S,1301,5204020,433,0,0,27871
S,1302,5208020,402,0,0,29471
S,1303,5212020,363,0,0,33607
S,1304,5216020,373,0,0,37686
S,1305,5220024,416,0,0,41550
S,1306,5224020,434,0,0,45747
S,1307,5228020,404,0,0,49460
S,1308,5232020,365,0,0,53674
S,1309,5236020,374,0,0,57616
S,1310,5240020,417,0,0,61476
S,1311,5244024,436,0,0,131
S,1312,5248020,405,0,0,4337
S,1313,5252020,366,0,0,10155
S,1314,5256020,376,0,0,14174
S,1315,5260020,419,0,0,17956
S,1316,5264020,438,0,0,22102
S,1317,5268020,407,0,0,26326
S,1318,5272020,367,0,0,30157
S,1319,5276020,376,0,0,34171
S,1320,5280020,420,0,0,38344
S,1321,5284020,438,0,0,42107
S,1322,5288020,407,0,0,46265
S,1323,5292020,366,0,0,48097
S,1324,5296020,376,0,0,52112
S,1325,5300020,419,0,0,56298
S,1326,5304020,437,0,0,59935
S,1327,5308024,404,0,0,64147
S,1328,5312020,365,0,0,2584
S,1329,5316020,375,0,0,6563
S,1330,5320020,417,0,0,10646
S,1331,5324020,436,0,0,14370
S,1332,5328020,405,0,0,18532
S,1333,5332020,366,0,0,22590
S,1334,5336020,376,0,0,28619
S,1335,5340020,419,0,0,32689
S,1336,5344020,436,0,0,36809
S,1337,5348020,403,0,0,40527
S,1338,5352024,364,0,0,44639
S,1339,5356020,375,0,0,48617
S,1340,5360020,419,0,0,52570
S,1341,5364024,436,0,0,56800
S,1342,5368020,403,0,0,60456
S,1343,5372020,363,0,0,64625
S,1344,5376020,374,0,0,3184
S,1345,5380024,417,0,0,4874
S,1346,5384024,435,0,0,9211
S,1347,5388020,404,0,0,12913
S,1348,5392020,364,0,0,17134
S,1349,5396020,374,0,0,21077
S,1350,5400020,417,0,0,24929
S,1351,5404020,434,0,0,29139
S,1352,5408024,403,0,0,33169
S,1353,5412020,365,0,0,37058
S,1354,5416020,375,0,0,41019
S,1355,5420020,417,0,0,46924
S,1356,5424020,434,0,0,51000
S,1357,5428020,402,0,0,55225
S,1358,5432020,362,0,0,59042
S,1359,5436024,374,0,0,62995
S,1360,5440020,417,0,0,1718
S,1361,5444020,433,0,0,5383
S,1362,5448020,401,0,0,9668
S,1363,5452020,362,0,0,13470
S,1364,5456020,373,0,0,17638
S,1365,5460020,415,0,0,21677
S,1366,5464020,431,0,0,23422
S,1367,5468020,399,0,0,27647
S,1368,5472024,361,0,0,31610
S,1369,5476020,372,0,0,35530
S,1370,5480020,413,0,0,39616
S,1371,5484020,430,0,0,43346
S,1372,5488020,399,0,0,47380
S,1373,5492020,361,0,0,51539
S,1374,5496020,373,0,0,55468
S,1375,5500024,417,0,0,59605
S,1376,5504020,435,0,0,63636
S,1377,5508020,404,0,0,3861
S,1378,5512020,367,0,0,7949
S,1379,5516020,380,0,0,11967
S,1380,5520020,424,0,0,15884
S,1381,5524024,439,0,0,20158
S,1382,5528020,405,0,0,23923
S,1383,5532020,369,0,0,27958
S,1384,5536024,382,0,0,32090
S,1385,5540020,426,0,0,35875
S,1386,5544020,443,0,0,40145
S,1387,5548020,407,0,0,41820
S,1388,5552020,366,0,0,46018
S,1389,5556020,376,0,0,50037
S,1390,5560024,419,0,0,53825
S,1391,5564024,433,0,0,58098
S,1392,5568020,398,0,0,62142
S,1393,5572020,357,0,0,501
S,1394,5576020,368,0,0,4355
S,1395,5580020,410,0,0,8264
S,1396,5584020,427,0,0,12318
S,1397,5588020,394,0,0,16542
S,1398,5592020,356,0,0,22419
S,1399,5596020,369,0,0,26407
S,1400,5600020,412,0,0,30629
S,1401,5604020,428,0,0,34356
S,1402,5608020,396,0,0,38647
S,1403,5612024,357,0,0,42419
S,1404,5616024,369,0,0,46528
S,1405,5620024,412,0,0,50572
S,1406,5624024,429,0,0,54366
S,1407,5628020,397,0,0,58579
S,1408,5632020,358,0,0,62631
S,1409,5636020,368,0,0,64272
S,1410,5640020,405,0,0,2837
S,1411,5644020,419,0,0,6786
S,1412,5648020,397,0,0,10955
S,1413,5652024,385,0,0,14954
S,1414,5656020,441,0,0,18877
S,1415,5660020,537,0,0,23228
S,1416,5664020,598,0,0,27292
S,1417,5668020,579,0,0,31528
S,1418,5672024,497,0,0,34933
S,1419,5676020,429,0,0,40836
S,1420,5680020,407,0,0,45017
S,1421,5684020,391,0,0,49000
S,1422,5688024,350,0,0,52830
S,1423,5692024,318,0,0,56991
S,1424,5696020,338,0,0,61056
S,1425,5700020,384,0,0,65011
S,1426,5704020,403,0,0,3330
S,1427,5708020,373,0,0,7237
S,1428,5712020,339,0,0,11268
S,1429,5716020,354,0,0,15508
S,1430,5720020,397,0,0,17304
S,1431,5724020,413,0,0,21289
S,1432,5728020,382,0,0,25509
S,1433,5732020,347,0,0,29217
S,1434,5736020,361,0,0,33520
S,1435,5740024,404,0,0,37280
S,1436,5744020,419,0,0,41468
S,1437,5748020,388,0,0,45434
S,1438,5752020,352,0,0,49277
S,1439,5756020,366,0,0,53458
S,1440,5760020,408,0,0,57467
S,1441,5764020,423,0,0,63461
S,1442,5768020,391,0,0,1833
S,1443,5772020,355,0,0,5740
S,1444,5776020,369,0,0,9753
S,1445,5780020,411,0,0,13906
S,1446,5784024,425,0,0,17807
S,1447,5788020,391,0,0,21772
S,1448,5792020,356,0,0,25984
S,1449,5796020,370,0,0,29751
S,1450,5800020,413,0,0,33851
S,1451,5804020,429,0,0,35754
S,1452,5808020,396,0,0,39916
S,1453,5812020,359,0,0,43942
S,1454,5816024,373,0,0,47707
S,1455,5820020,415,0,0,51740
S,1456,5824020,429,0,0,55889
S,1457,5828020,397,0,0,59856
S,1458,5832020,362,0,0,63956
S,1459,5836020,376,0,0,2150
S,1460,5840020,419,0,0,6362
S,1461,5844020,435,0,0,10347
S,1462,5848020,403,0,0,16296
S,1463,5852020,366,0,0,20468
S,1464,5856020,380,0,0,24457
S,1465,5860024,423,0,0,28415
S,1466,5864020,439,0,0,32256
S,1467,5868024,407,0,0,36237
S,1468,5872020,371,0,0,40194
S,1469,5876020,387,0,0,44371
S,1470,5880020,431,0,0,48284
S,1471,5884024,446,0,0,52256
S,1472,5888020,412,0,0,56337
S,1473,5892020,375,0,0,58203
S,1474,5896020,389,0,0,62282
S,1475,5900020,431,0,0,706
S,1476,5904020,446,0,0,4788
S,1477,5908020,411,0,0,8752
S,1478,5912020,374,0,0,12606
S,1479,5916020,387,0,0,16746
S,1480,5920024,428,0,0,20774
S,1481,5924020,440,0,0,24735
S,1482,5928020,405,0,0,28753
S,1483,5932020,367,0,0,34570
S,1484,5936020,379,0,0,38777
S,1485,5940020,418,0,0,42753
S,1486,5944020,428,0,0,46828
S,1487,5948020,391,0,0,50790
S,1488,5952020,352,0,0,55038
S,1489,5956020,364,0,0,58707
S,1490,5960020,405,0,0,62793
S,1491,5964020,418,0,0,1246
S,1492,5968020,383,0,0,5220
S,1493,5972020,346,0,0,9440
S,1494,5976020,358,0,0,11071
S,1495,5980020,399,0,0,15223
S,1496,5984020,413,0,0,19210
S,1497,5988020,380,0,0,23114
S,1498,5992020,345,0,0,27276
S,1499,5996020,359,0,0,30995
S,1500,6000020,400,0,0,35203
S,1501,6004020,414,0,0,39212
S,1502,6008024,381,0,0,43040
S,1503,6012024,346,0,0,47270
S,1504,6016020,361,0,0,51398
S,1505,6020020,403,0,0,57245
S,1506,6024020,416,0,0,61261
S,1507,6028020,382,0,0,65074
S,1508,6032020,346,0,0,3702
S,1509,6036020,361,0,0,7908
S,1510,6040020,402,0,0,11772
S,1511,6044020,416,0,0,15727
S,1512,6048024,383,0,0,19923
S,1513,6052020,348,0,0,23645
S,1514,6056020,361,0,0,27787
S,1515,6060020,403,0,0,29648
S,1516,6064020,417,0,0,33669
S,1517,6068020,384,0,0,37637
S,1518,6072020,347,0,0,41533
S,1519,6076020,363,0,0,45740
S,1520,6080020,404,0,0,49708
S,1521,6084024,418,0,0,53687
S,1522,6088020,385,0,0,57723
S,1523,6092020,349,0,0,61446
S,1524,6096020,364,0,0,81
S,1525,6100020,405,0,0,4105
S,1526,6104020,418,0,0,10205
S,1527,6108020,384,0,0,14174
S,1528,6112020,349,0,0,18412
S,1529,6116024,364,0,0,22128
S,1530,6120020,405,0,0,26214
S,1531,6124020,417,0,0,30195
S,1532,6128020,383,0,0,34122
S,1533,6132020,348,0,0,38344
S,1534,6136020,363,0,0,42012
S,1535,6140020,404,0,0,46146
S,1536,6144020,416,0,0,51177
S,1537,6148020,382,0,0,51350
S,1538,6152020,347,0,0,55376
S,1539,6156024,362,0,0,59852
S,1540,6160020,403,0,0,63838
S,1541,6164020,416,0,0,2511
S,1542,6168020,381,0,0,6897
S,1543,6172020,346,0,0,10871
S,1544,6176024,362,0,0,14884
S,1545,6180020,403,0,0,19312
S,1546,6184020,414,0,0,23454
S,1547,6188020,379,0,0,27866
S,1548,6192020,346,0,0,31900
S,1549,6196020,361,0,0,35854
S,1550,6200024,403,0,0,40219
S,1551,6204020,416,0,0,44421
S,1552,6208020,380,0,0,48422
S,1553,6212020,345,0,0,52898
S,1554,6216020,362,0,0,56946
S,1555,6220020,404,0,0,61229
S,1556,6224020,415,0,0,65345
S,1557,6228020,380,0,0,3842
S,1558,6232020,345,0,0,4292
S,1559,6236020,361,0,0,8277
S,1560,6240020,402,0,0,12481
S,1561,6244020,414,0,0,16748
S,1562,6248024,380,0,0,20833
S,1563,6252020,346,0,0,25322
S,1564,6256020,361,0,0,29374
S,1565,6260020,402,0,0,33508
S,1566,6264024,414,0,0,37639
S,1567,6268020,380,0,0,41800
S,1568,6272020,346,0,0,45873
S,1569,6276020,361,0,0,50339
S,1570,6280020,404,0,0,54461
S,1571,6284020,415,0,0,58647
S,1572,6288020,380,0,0,62867
S,1573,6292020,346,0,0,1323
S,1574,6296020,362,0,0,5880
S,1575,6300020,404,0,0,9895
S,1576,6304024,417,0,0,14065
S,1577,6308024,386,0,0,18291
S,1578,6312024,353,0,0,22387
S,1579,6316024,369,0,0,22722
S,1580,6320020,408,0,0,26688
S,1581,6324020,421,0,0,30940
S,1582,6328020,387,0,0,35097
S,1583,6332020,356,0,0,39263
S,1584,6336020,373,0,0,43313
S,1585,6340020,414,0,0,47739
S,1586,6344020,422,0,0,51872
S,1587,6348020,384,0,0,56103
S,1588,6352020,349,0,0,60317
S,1589,6356020,365,0,0,64268
S,1590,6360020,406,0,0,3093
S,1591,6364020,415,0,0,7357
S,1592,6368020,376,0,0,11317
S,1593,6372020,339,0,0,15807
S,1594,6376020,354,0,0,19821
S,1595,6380020,396,0,0,24098
S,1596,6384020,408,0,0,28241
S,1597,6388020,371,0,0,32283
S,1598,6392020,336,0,0,36827
S,1599,6396020,353,0,0,40779
S,1600,6400020,395,0,0,44990
S,1601,6404020,405,0,0,45057
S,1602,6408020,367,0,0,49176
S,1603,6412020,332,0,0,53658
S,1604,6416020,349,0,0,57836
S,1605,6420020,390,0,0,61846
S,1606,6424024,400,0,0,620
S,1607,6428020,362,0,0,4667
S,1608,6432020,326,0,0,8824
S,1609,6436024,339,0,0,13248
S,1610,6440020,382,0,0,17154
S,1611,6444020,408,0,0,21573
S,1612,6448020,403,0,0,25641
S,1613,6452020,416,0,0,29883
S,1614,6456020,485,0,0,34077
S,1615,6460020,563,0,0,38506
S,1616,6464020,565,0,0,42515
S,1617,6468020,458,0,0,46669
S,1618,6472024,339,0,0,50747
S,1619,6476020,312,0,0,55293
S,1620,6480020,340,0,0,59382
S,1621,6484020,352,0,0,63331
S,1622,6488020,327,0,0,63655
S,1623,6492020,303,0,0,2159
S,1624,6496020,323,0,0,6252
S,1625,6500020,361,0,0,10727
S,1626,6504024,373,0,0,14612
S,1627,6508024,341,0,0,19093
S,1628,6512020,312,0,0,23187
S,1629,6516020,330,0,0,27200
S,1630,6520020,371,0,0,31642
S,1631,6524020,384,0,0,35784
S,1632,6528020,353,0,0,39798
S,1633,6532020,323,0,0,44277
S,1634,6536020,342,0,0,48131
S,1635,6540020,383,0,0,52619
S,1636,6544020,393,0,0,56602
S,1637,6548020,356,0,0,60758
S,1638,6552020,323,0,0,65170
S,1639,6556020,340,0,0,3619
S,1640,6560020,380,0,0,7780
S,1641,6564024,387,0,0,12086
S,1642,6568020,349,0,0,16135
S,1643,6572024,318,0,0,16585
S,1644,6576020,337,0,0,20685
S,1645,6580020,379,0,0,24646
S,1646,6584020,391,0,0,29017
S,1647,6588020,356,0,0,33051
S,1648,6592020,326,0,0,37190
S,1649,6596020,345,0,0,41720
S,1650,6600020,386,0,0,45760
S,1651,6604020,396,0,0,50031
S,1652,6608020,360,0,0,54252
S,1653,6612020,330,0,0,58223
S,1654,6616020,352,0,0,62630
S,1655,6620020,396,0,0,1258
S,1656,6624020,409,0,0,5264
S,1657,6628020,377,0,0,9681
S,1658,6632020,349,0,0,13590
S,1659,6636020,369,0,0,18075
S,1660,6640020,410,0,0,22039
S,1661,6644020,420,0,0,26248
S,1662,6648020,386,0,0,30541
S,1663,6652020,356,0,0,34570
S,1664,6656024,377,0,0,38788
S,1665,6660024,419,0,0,39167
S,1666,6664020,429,0,0,43038
S,1667,6668020,395,0,0,47513
S,1668,6672024,366,0,0,51479
S,1669,6676020,385,0,0,55637
S,1670,6680020,425,0,0,60062
S,1671,6684020,434,0,0,64036
S,1672,6688020,400,0,0,2666
S,1673,6692024,368,0,0,6951
S,1674,6696020,387,0,0,11067
S,1675,6700020,427,0,0,15538
S,1676,6704020,436,0,0,19658
S,1677,6708020,401,0,0,23630
S,1678,6712020,370,0,0,27982
S,1679,6716020,389,0,0,32024
S,1680,6720020,426,0,0,36168
S,1681,6724020,431,0,0,40684
S,1682,6728024,393,0,0,44581
S,1683,6732020,360,0,0,49001
S,1684,6736020,377,0,0,53023
S,1685,6740020,412,0,0,57179
S,1686,6744020,418,0,0,57478
S,1687,6748020,382,0,0,61691
S,1688,6752020,350,0,0,181
S,1689,6756020,366,0,0,4388
S,1690,6760020,401,0,0,8504
S,1691,6764020,407,0,0,12959
S,1692,6768020,373,0,0,16922
S,1693,6772020,343,0,0,21145
S,1694,6776020,360,0,0,25413
S,1695,6780020,396,0,0,29440
S,1696,6784020,404,0,0,33607
S,1697,6788024,371,0,0,37901
S,1698,6792020,342,0,0,42183
S,1699,6796020,361,0,0,46425
S,1700,6800020,399,0,0,50648
S,1701,6804024,406,0,0,54636
S,1702,6808024,373,0,0,58988
S,1703,6812020,343,0,0,63203
S,1704,6816020,362,0,0,1726
S,1705,6820020,400,0,0,6117
S,1706,6824020,408,0,0,9998
S,1707,6828020,374,0,0,10305
S,1708,6832020,346,0,0,14346
S,1709,6836020,364,0,0,18589
S,1710,6840020,401,0,0,22915
S,1711,6844024,408,0,0,26919
S,1712,6848020,374,0,0,31162
S,1713,6852020,346,0,0,35383
S,1714,6856020,363,0,0,39653
S,1715,6860020,400,0,0,43967
S,1716,6864020,407,0,0,48095
S,1717,6868020,374,0,0,52127
S,1718,6872020,345,0,0,56403
S,1719,6876020,363,0,0,60608
S,1720,6880020,399,0,0,64587
S,1721,6884020,404,0,0,3568
S,1722,6888020,370,0,0,7669
S,1723,6892020,341,0,0,11891
S,1724,6896024,359,0,0,15914
S,1725,6900020,397,0,0,20077
S,1726,6904020,404,0,0,24471
S,1727,6908020,370,0,0,28624
S,1728,6912020,340,0,0,32745
S,1729,6916020,356,0,0,32888
S,1730,6920020,391,0,0,36984
S,1731,6924020,399,0,0,41425
S,1732,6928024,366,0,0,45403
S,1733,6932020,339,0,0,49611
S,1734,6936020,356,0,0,53791
S,1735,6940020,391,0,0,57949
S,1736,6944020,398,0,0,62011
S,1737,6948024,365,0,0,886
S,1738,6952020,336,0,0,5028
S,1739,6956020,354,0,0,9271
S,1740,6960020,389,0,0,13495
S,1741,6964020,396,0,0,17439
S,1742,6968020,365,0,0,21789
S,1743,6972020,338,0,0,25987
S,1744,6976024,354,0,0,30144
S,1745,6980020,388,0,0,34443
S,1746,6984020,395,0,0,38503
S,1747,6988020,364,0,0,42785
S,1748,6992024,339,0,0,46965
S,1749,6996020,358,0,0,51181
S,1750,7000020,394,0,0,51426
S,1751,7004020,400,0,0,55385
S,1752,7008020,367,0,0,59593
S,1753,7012024,340,0,0,63839
S,1754,7016020,357,0,0,2432
S,1755,7020020,392,0,0,6860
S,1756,7024020,399,0,0,10924
S,1757,7028020,367,0,0,15085
S,1758,7032024,340,0,0,19257
S,1759,7036020,357,0,0,23461
S,1760,7040020,390,0,0,27417
S,1761,7044020,397,0,0,31923
S,1762,7048020,365,0,0,36016
S,1763,7052020,338,0,0,40238
S,1764,7056024,355,0,0,44404
S,1765,7060024,389,0,0,48435
S,1766,7064020,396,0,0,52949
S,1767,7068020,365,0,0,56981
S,1768,7072020,338,0,0,61125
S,1769,7076020,356,0,0,65362
S,1770,7080020,389,0,0,3927
S,1771,7084020,395,0,0,4344
S,1772,7088020,364,0,0,8312
S,1773,7092020,339,0,0,12518
S,1774,7096020,358,0,0,16688
S,1775,7100020,394,0,0,20861
S,1776,7104020,402,0,0,24858
S,1777,7108024,371,0,0,29270
S,1778,7112020,345,0,0,33427
S,1779,7116024,360,0,0,37647
S,1780,7120020,393,0,0,41861
S,1781,7124020,401,0,0,45884
S,1782,7128020,372,0,0,50234
S,1783,7132020,348,0,0,54451
S,1784,7136020,363,0,0,58603
S,1785,7140024,393,0,0,62884
S,1786,7144020,397,0,0,1358
S,1787,7148020,364,0,0,5646
S,1788,7152024,339,0,0,9818
S,1789,7156024,354,0,0,14026
S,1790,7160020,385,0,0,18374
S,1791,7164020,388,0,0,22370
S,1792,7168020,356,0,0,26141
S,1793,7172020,331,0,0,27027
S,1794,7176020,347,0,0,31072
S,1795,7180024,379,0,0,35053
S,1796,7184020,385,0,0,39036
S,1797,7188020,355,0,0,43071
S,1798,7192020,331,0,0,48116
S,1799,7196020,346,0,0,52036
S,1800,7200020,377,0,0,56072
S,1801,7204020,384,0,0,59984
S,1802,7208020,355,0,0,64080
S,1803,7212020,332,0,0,3549
S,1804,7216020,349,0,0,7595
S,1805,7220020,380,0,0,11563
S,1806,7224020,384,0,0,15412
S,1807,7228020,349,0,0,19528
S,1808,7232024,323,0,0,23589
S,1809,7236020,347,0,0,28560
S,1810,7240024,404,0,0,32688
S,1811,7244020,454,0,0,36431
S,1812,7248020,482,0,0,40460
S,1813,7252020,509,0,0,44722
S,1814,7256020,553,0,0,45701
S,1815,7260020,556,0,0,49697
S,1816,7264020,486,0,0,53636
S,1817,7268020,383,0,0,57532
S,1818,7272020,317,0,0,61469
S,1819,7276020,316,0,0,956
S,1820,7280020,347,0,0,5052
S,1821,7284024,359,0,0,9005
S,1822,7288020,337,0,0,13044
S,1823,7292020,316,0,0,16952
S,1824,7296020,332,0,0,21015
S,1825,7300020,362,0,0,26000
S,1826,7304020,370,0,0,30059
S,1827,7308020,344,0,0,34016
S,1828,7312020,324,0,0,38043
S,1829,7316020,343,0,0,42025
S,1830,7320020,375,0,0,47082
S,1831,7324020,381,0,0,51009
S,1832,7328020,353,0,0,55090
S,1833,7332024,331,0,0,59061
S,1834,7336020,348,0,0,63053
S,1835,7340024,379,0,0,63943
S,1836,7344020,385,0,0,2377
S,1837,7348020,357,0,0,6412
S,1838,7352020,336,0,0,10458
S,1839,7356024,354,0,0,14405
S,1840,7360020,386,0,0,18646
S,1841,7364024,392,0,0,23409
S,1842,7368020,363,0,0,27517
S,1843,7372024,341,0,0,31470
S,1844,7376020,359,0,0,35511
S,1845,7380020,391,0,0,39670
S,1846,7384020,396,0,0,44318
S,1847,7388020,367,0,0,48476
S,1848,7392024,345,0,0,52489
S,1849,7396020,363,0,0,56470
S,1850,7400020,394,0,0,60564
S,1851,7404020,400,0,0,65327
S,1852,7408020,371,0,0,4010
S,1853,7412020,350,0,0,7974
S,1854,7416020,368,0,0,12011
S,1855,7420020,400,0,0,16042
S,1856,7424020,406,0,0,20147
S,1857,7428020,376,0,0,20988
S,1858,7432020,354,0,0,24837
S,1859,7436024,373,0,0,28863
S,1860,7440020,406,0,0,32823
S,1861,7444020,412,0,0,37020
S,1862,7448020,383,0,0,41884
S,1863,7452020,361,0,0,45867
S,1864,7456020,380,0,0,50001
S,1865,7460020,413,0,0,53777
S,1866,7464020,419,0,0,58060
S,1867,7468020,390,0,0,62792
S,1868,7472024,367,0,0,1481
S,1869,7476020,385,0,0,5514
S,1870,7480020,417,0,0,9289
S,1871,7484020,423,0,0,13550
S,1872,7488020,395,0,0,17597
S,1873,7492020,373,0,0,22498
S,1874,7496020,390,0,0,26610
S,1875,7500024,421,0,0,30332
S,1876,7504020,424,0,0,34330
S,1877,7508020,391,0,0,38548
S,1878,7512024,366,0,0,39314
S,1879,7516020,383,0,0,43310
S,1880,7520020,412,0,0,47522
S,1881,7524024,413,0,0,51214
S,1882,7528020,379,0,0,55303
S,1883,7532020,353,0,0,60348
S,1884,7536020,369,0,0,64459
S,1885,7540020,399,0,0,2965
S,1886,7544020,401,0,0,6760
S,1887,7548020,368,0,0,10792
S,1888,7552020,342,0,0,14929
S,1889,7556020,358,0,0,19904
S,1890,7560020,387,0,0,24006
S,1891,7564020,389,0,0,27745
S,1892,7568020,360,0,0,31979
S,1893,7572020,337,0,0,35955
S,1894,7576020,355,0,0,40866
S,1895,7580020,386,0,0,45026
S,1896,7584020,389,0,0,49034
S,1897,7588024,360,0,0,52938
S,1898,7592024,337,0,0,56848
S,1899,7596020,355,0,0,57743
S,1900,7600024,386,0,0,61701
S,1901,7604020,390,0,0,427
S,1902,7608020,361,0,0,4263
S,1903,7612020,339,0,0,8252
S,1904,7616020,356,0,0,12404
S,1905,7620020,387,0,0,17202
S,1906,7624020,391,0,0,21461
S,1907,7628020,362,0,0,25241
S,1908,7632020,342,0,0,29378
S,1909,7636020,360,0,0,33373
S,1910,7640024,390,0,0,38236
S,1911,7644020,393,0,0,42494
S,1912,7648020,364,0,0,46452
S,1913,7652020,343,0,0,50414
S,1914,7656020,360,0,0,54322
S,1915,7660020,388,0,0,59263
S,1916,7664020,392,0,0,63252
S,1917,7668020,362,0,0,1878
S,1918,7672020,341,0,0,5770
S,1919,7676024,358,0,0,9748
S,1920,7680020,387,0,0,13922
S,1921,7684020,390,0,0,14790
S,1922,7688020,362,0,0,18889
S,1923,7692020,340,0,0,22614
S,1924,7696020,358,0,0,26627
S,1925,7700024,387,0,0,30795
S,1926,7704020,391,0,0,35744
S,1927,7708020,362,0,0,39916
S,1928,7712020,341,0,0,43964
S,1929,7716020,359,0,0,47663
S,1930,7720020,387,0,0,51752
S,1931,7724020,389,0,0,56719
S,1932,7728020,358,0,0,60683
S,1933,7732020,337,0,0,64925
S,1934,7736020,355,0,0,3151
S,1935,7740020,385,0,0,7180
S,1936,7744020,388,0,0,11382
S,1937,7748020,359,0,0,16180
S,1938,7752024,337,0,0,20461
S,1939,7756024,356,0,0,24185
S,1940,7760020,385,0,0,28407
S,1941,7764020,388,0,0,32339
S,1942,7768020,359,0,0,33107
S,1943,7772020,338,0,0,37319
S,1944,7776020,356,0,0,41374
S,1945,7780024,385,0,0,45270
S,1946,7784020,387,0,0,49211
S,1947,7788020,358,0,0,54143
S,1948,7792020,338,0,0,58156
S,1949,7796020,357,0,0,62394
S,1950,7800020,387,0,0,702
S,1951,7804020,389,0,0,4633
S,1952,7808020,359,0,0,8868
S,1953,7812020,338,0,0,13616
S,1954,7816020,356,0,0,17893
S,1955,7820020,386,0,0,21666
S,1956,7824020,390,0,0,25793
S,1957,7828020,361,0,0,29839
S,1958,7832020,341,0,0,34640
S,1959,7836020,360,0,0,38860
S,1960,7840020,391,0,0,42828
S,1961,7844020,395,0,0,46817
S,1962,7848024,368,0,0,50933
S,1963,7852020,350,0,0,51574
S,1964,7856020,373,0,0,55610
S,1965,7860020,406,0,0,59768
S,1966,7864020,409,0,0,63636
S,1967,7868020,379,0,0,2264
S,1968,7872020,359,0,0,6331
S,1969,7876020,378,0,0,11015
S,1970,7880020,409,0,0,15111
S,1971,7884024,412,0,0,19119
S,1972,7888020,378,0,0,23074
S,1973,7892020,354,0,0,27291
S,1974,7896020,370,0,0,32104
S,1975,7900020,398,0,0,36149
S,1976,7904020,400,0,0,40260
S,1977,7908024,368,0,0,44041
S,1978,7912020,344,0,0,48334
S,1979,7916020,360,0,0,53087
S,1980,7920020,389,0,0,57301
S,1981,7924020,391,0,0,61302
S,1982,7928020,363,0,0,65145
S,1983,7932020,344,0,0,3818
S,1984,7936020,364,0,0,7873
S,1985,7940020,392,0,0,8580
S,1986,7944020,395,0,0,12644
S,1987,7948024,367,0,0,16429
S,1988,7952020,347,0,0,20594
S,1989,7956024,365,0,0,24809
S,1990,7960020,394,0,0,29665
S,1991,7964020,396,0,0,33606
S,1992,7968020,365,0,0,37832
S,1993,7972020,346,0,0,41566
S,1994,7976020,363,0,0,45708
S,1995,7980024,388,0,0,50638
S,1996,7984020,388,0,0,54693
S,1997,7988024,367,0,0,58851
S,1998,7992020,372,0,0,62487
S,1999,7996020,436,0,0,1141
S,2000,8000020,522,0,0,6068
S,2001,8004020,576,0,0,9311
S,2002,8008024,572,0,0,13516
S,2003,8012020,522,0,0,17751
S,2004,8016024,468,0,0,22242
S,2005,8020020,428,0,0,26167
S,2006,8024020,387,0,0,27131
S,2007,8028020,335,0,0,31126
S,2008,8032020,310,0,0,35200
S,2009,8036020,334,0,0,39001
S,2010,8040020,368,0,0,43140
S,2011,8044020,373,0,0,47904
S,2012,8048020,345,0,0,52075
S,2013,8052024,327,0,0,56280
S,2014,8056020,346,0,0,59946
S,2015,8060020,375,0,0,64166
S,2016,8064020,380,0,0,2803
S,2017,8068020,353,0,0,7503
S,2018,8072020,336,0,0,11677
S,2019,8076020,356,0,0,15368
S,2020,8080024,385,0,0,19590
S,2021,8084024,388,0,0,23586
S,2022,8088020,360,0,0,28449
S,2023,8092020,342,0,0,32702
S,2024,8096020,362,0,0,36845
S,2025,8100020,392,0,0,40622
S,2026,8104020,394,0,0,44623
S,2027,8108020,364,0,0,45320
S,2028,8112020,345,0,0,49498
S,2029,8116020,366,0,0,53708
S,2030,8120024,397,0,0,57536
S,2031,8124020,399,0,0,61551
S,2032,8128020,369,0,0,233
S,2033,8132020,350,0,0,4967
S,2034,8136024,370,0,0,9124
S,2035,8140020,399,0,0,13044
S,2036,8144020,402,0,0,17038
S,2037,8148020,374,0,0,21195
S,2038,8152020,355,0,0,25917
S,2039,8156020,374,0,0,30089
S,2040,8160020,403,0,0,34051
S,2041,8164024,406,0,0,38059
S,2042,8168020,377,0,0,42155
S,2043,8172020,359,0,0,46868
S,2044,8176020,378,0,0,51054
S,2045,8180020,407,0,0,55074
S,2046,8184020,409,0,0,59087
S,2047,8188020,381,0,0,63114
S,2048,8192020,365,0,0,2308
S,2049,8196020,386,0,0,1610
S,2050,8200020,415,0,0,5812
S,2051,8204020,417,0,0,10027
S,2052,8208020,389,0,0,14184
S,2053,8212020,372,0,0,18232
S,2054,8216024,394,0,0,21545
S,2055,8220020,423,0,0,25769
S,2056,8224020,425,0,0,29896
S,2057,8228020,395,0,0,34123
S,2058,8232020,376,0,0,38235
S,2059,8236020,398,0,0,41484
S,2060,8240020,427,0,0,45646
S,2061,8244020,428,0,0,49896
S,2062,8248020,398,0,0,54057
S,2063,8252024,378,0,0,58224
S,2064,8256020,398,0,0,62455
S,2065,8260020,425,0,0,114
S,2066,8264020,422,0,0,4254
S,2067,8268020,389,0,0,8476
S,2068,8272020,367,0,0,12689
S,2069,8276020,384,0,0,16863
S,2070,8280020,408,0,0,24100
S,2071,8284020,405,0,0,28296
S,2072,8288020,373,0,0,32263
S,2073,8292020,352,0,0,36787
S,2074,8296020,368,0,0,40768
S,2075,8300020,394,0,0,44059
S,2076,8304020,393,0,0,48255
S,2077,8308020,361,0,0,52286
S,2078,8312020,343,0,0,56803
S,2079,8316024,363,0,0,60786
S,2080,8320020,390,0,0,64972
S,2081,8324024,390,0,0,2656
S,2082,8328020,359,0,0,6766
S,2083,8332020,341,0,0,11261
S,2084,8336020,360,0,0,15271
S,2085,8340020,388,0,0,19434
S,2086,8344020,389,0,0,22536
S,2087,8348020,360,0,0,26692
S,2088,8352020,343,0,0,30740
S,2089,8356020,364,0,0,35214
S,2090,8360020,393,0,0,39304
S,2091,8364020,394,0,0,38442
S,2092,8368020,365,0,0,42666
S,2093,8372020,346,0,0,46652
S,2094,8376020,366,0,0,51179
S,2095,8380020,394,0,0,55214
S,2096,8384020,396,0,0,59351
S,2097,8388020,367,0,0,62613
S,2098,8392020,348,0,0,1210
S,2099,8396020,367,0,0,5416
S,2100,8400020,395,0,0,9643
S,2101,8404020,395,0,0,13578
S,2102,8408020,366,0,0,16908
S,2103,8412020,348,0,0,21151
S,2104,8416020,367,0,0,25283
S,2105,8420020,394,0,0,29575
S,2106,8424020,395,0,0,33637
S,2107,8428024,365,0,0,36910
S,2108,8432020,347,0,0,41075
S,2109,8436024,367,0,0,45290
S,2110,8440024,395,0,0,49645
S,2111,8444024,395,0,0,53580
S,2112,8448020,365,0,0,57785
S,2113,8452020,348,0,0,65065
S,2114,8456020,368,0,0,3815
S,2115,8460020,395,0,0,8125
S,2116,8464020,395,0,0,12250
S,2117,8468024,365,0,0,16273
S,2118,8472020,348,0,0,19535
S,2119,8476020,368,0,0,23746
S,2120,8480020,396,0,0,27729
S,2121,8484020,395,0,0,32247
S,2122,8488020,365,0,0,36338
S,2123,8492020,346,0,0,39524
S,2124,8496020,366,0,0,43575
S,2125,8500020,394,0,0,47730
S,2126,8504024,394,0,0,52125
S,2127,8508024,364,0,0,56282
S,2128,8512020,346,0,0,60319
S,2129,8516020,366,0,0,63498
S,2130,8520020,393,0,0,2061
S,2131,8524020,394,0,0,6575
S,2132,8528020,365,0,0,10543
S,2133,8532020,347,0,0,14776
S,2134,8536020,368,0,0,13936
S,2135,8540020,397,0,0,17964
S,2136,8544020,398,0,0,22080
S,2137,8548020,368,0,0,26399
S,2138,8552020,350,0,0,30674
S,2139,8556020,371,0,0,33886
S,2140,8560020,398,0,0,38084
S,2141,8564020,397,0,0,42086
S,2142,8568020,368,0,0,46456
S,2143,8572020,351,0,0,50678
S,2144,8576020,372,0,0,54658
S,2145,8580020,400,0,0,58055
S,2146,8584020,399,0,0,62011
S,2147,8588020,369,0,0,869
S,2148,8592020,353,0,0,4882
S,2149,8596020,374,0,0,9124
S,2150,8600024,402,0,0,12463
S,2151,8604020,400,0,0,16384
S,2152,8608020,369,0,0,20622
S,2153,8612020,353,0,0,24895
S,2154,8616020,376,0,0,29125
S,2155,8620020,406,0,0,36490
S,2156,8624020,409,0,0,40674
S,2157,8628020,382,0,0,44708
S,2158,8632020,365,0,0,48980
S,2159,8636024,385,0,0,53013
S,2160,8640020,412,0,0,57211
S,2161,8644020,412,0,0,60634
S,2162,8648020,383,0,0,64730
S,2163,8652020,367,0,0,3436
S,2164,8656020,390,0,0,7650
S,2165,8660020,416,0,0,11621
S,2166,8664020,412,0,0,15034
S,2167,8668020,380,0,0,19195
S,2168,8672020,362,0,0,23170
S,2169,8676024,383,0,0,27450
S,2170,8680020,409,0,0,31539
S,2171,8684020,405,0,0,34974
S,2172,8688020,371,0,0,38943
S,2173,8692020,352,0,0,43181
S,2174,8696020,374,0,0,47448
S,2175,8700020,401,0,0,51486
S,2176,8704020,399,0,0,55711
S,2177,8708020,369,0,0,54976
S,2178,8712020,353,0,0,58931
S,2179,8716024,374,0,0,63369
S,2180,8720020,401,0,0,1796
S,2181,8724020,399,0,0,6075
S,2182,8728024,368,0,0,9387
S,2183,8732024,353,0,0,13339
S,2184,8736024,374,0,0,17507
S,2185,8740020,402,0,0,21802
S,2186,8744020,402,0,0,26057
S,2187,8748020,371,0,0,29321
S,2188,8752020,349,0,0,33472
S,2189,8756020,367,0,0,37459
S,2190,8760024,402,0,0,41793
S,2191,8764024,425,0,0,46043
S,2192,8768020,439,0,0,50102
S,2193,8772020,480,0,0,53312
S,2194,8776020,557,0,0,58222
S,2195,8780020,618,0,0,62088
S,2196,8784020,594,0,0,724
S,2197,8788020,489,0,0,4558
S,2198,8792020,399,0,0,11851
S,2199,8796020,375,0,0,15890
S,2200,8800020,381,0,0,20087
S,2201,8804020,375,0,0,24540
S,2202,8808020,349,0,0,28437
S,2203,8812024,336,0,0,31925
S,2204,8816020,359,0,0,36073
S,2205,8820020,386,0,0,40109
S,2206,8824024,385,0,0,44353
S,2207,8828020,355,0,0,48398
S,2208,8832020,340,0,0,52582
S,2209,8836020,362,0,0,56057
S,2210,8840020,391,0,0,60151
S,2211,8844020,392,0,0,64345
S,2212,8848020,363,0,0,3036
S,2213,8852020,348,0,0,6986
S,2214,8856020,370,0,0,10375
S,2215,8860020,397,0,0,14553
S,2216,8864020,398,0,0,18613
S,2217,8868020,368,0,0,23018
S,2218,8872024,352,0,0,26901
S,2219,8876020,375,0,0,26287
S,2220,8880020,403,0,0,30252
S,2221,8884020,402,0,0,34444
S,2222,8888024,371,0,0,38786
S,2223,8892020,356,0,0,42808
S,2224,8896020,379,0,0,46936
S,2225,8900020,407,0,0,50197
S,2226,8904020,407,0,0,54518
S,2227,8908020,377,0,0,58809
S,2228,8912020,362,0,0,62925
S,2229,8916020,385,0,0,1416
S,2230,8920020,414,0,0,4724
S,2231,8924020,413,0,0,8918
S,2232,8928020,384,0,0,12964
S,2233,8932024,371,0,0,17402
S,2234,8936020,395,0,0,21485
S,2235,8940020,423,0,0,24672
S,2236,8944020,423,0,0,28679
S,2237,8948020,394,0,0,32907
S,2238,8952020,380,0,0,37278
S,2239,8956020,405,0,0,41430
S,2240,8960020,433,0,0,45549
S,2241,8964020,433,0,0,52812
S,2242,8968020,405,0,0,56971
S,2243,8972020,392,0,0,61239
S,2244,8976020,417,0,0,65401
S,2245,8980024,446,0,0,4042
S,2246,8984020,445,0,0,7206
S,2247,8988020,416,0,0,11418
S,2248,8992024,403,0,0,15562
S,2249,8996020,426,0,0,19806
S,2250,9000024,454,0,0,24029
S,2251,9004020,452,0,0,27250
S,2252,9008020,422,0,0,31351
S,2253,9012024,408,0,0,35556
S,2254,9016020,430,0,0,39741
S,2255,9020024,458,0,0,44020
S,2256,9024020,456,0,0,48005
S,2257,9028020,425,0,0,51269
S,2258,9032024,409,0,0,55450
S,2259,9036020,429,0,0,59651
S,2260,9040020,453,0,0,63756
S,2261,9044020,448,0,0,2475
S,2262,9048020,414,0,0,1558
S,2263,9052020,396,0,0,5797
S,2264,9056020,415,0,0,9945
S,2265,9060020,437,0,0,14162
S,2266,9064020,431,0,0,18347
S,2267,9068020,398,0,0,21547
S,2268,9072020,380,0,0,25790
S,2269,9076020,400,0,0,29939
S,2270,9080024,424,0,0,34084
S,2271,9084024,418,0,0,38287
S,2272,9088020,387,0,0,42493
S,2273,9092020,372,0,0,45739
S,2274,9096024,393,0,0,49849
S,2275,9100020,419,0,0,54078
S,2276,9104020,416,0,0,58202
S,2277,9108020,386,0,0,62425
S,2278,9112020,371,0,0,202
S,2279,9116020,393,0,0,4241
S,2280,9120020,419,0,0,8404
S,2281,9124020,416,0,0,12662
S,2282,9128020,386,0,0,16823
S,2283,9132020,372,0,0,24288
S,2284,9136020,393,0,0,28282
S,2285,9140020,419,0,0,32497
S,2286,9144024,416,0,0,36637
S,2287,9148020,387,0,0,40851
S,2288,9152020,372,0,0,44827
S,2289,9156020,394,0,0,48196
S,2290,9160020,420,0,0,52361
S,2291,9164020,416,0,0,56620
S,2292,9168020,384,0,0,60779
S,2293,9172020,369,0,0,64827
S,2294,9176020,392,0,0,2598
S,2295,9180020,418,0,0,6829
S,2296,9184020,415,0,0,11007
S,2297,9188024,384,0,0,15181
S,2298,9192020,369,0,0,19283
S,2299,9196020,392,0,0,22539
S,2300,9200020,418,0,0,26694
S,2301,9204020,413,0,0,30936
S,2302,9208020,381,0,0,35291
S,2303,9212020,367,0,0,39272
S,2304,9216020,392,0,0,43024
S,2305,9220020,418,0,0,42907
S,2306,9224020,413,0,0,46919
S,2307,9228020,381,0,0,50694
S,2308,9232020,367,0,0,54899
S,2309,9236020,393,0,0,58932
S,2310,9240020,418,0,0,62972
S,2311,9244020,390,0,0,1400
S,2312,9248020,308,0,0,5541
S,2313,9252020,295,0,0,9239
S,2314,9256020,372,0,0,13479
S,2315,9260020,435,0,0,17345
S,2316,9264020,404,0,0,21377
S,2317,9268020,300,0,0,25496
S,2318,9272020,279,0,0,29248
S,2319,9276020,389,0,0,33395
S,2320,9280020,479,0,0,37462
S,2321,9284020,442,0,0,41362
S,2322,9288024,316,0,0,45563
S,2323,9292024,282,0,0,49276
S,2324,9296020,390,0,0,53387
S,2325,9300020,483,0,0,57423
S,2326,9304020,447,0,0,65520
S,2327,9308020,318,0,0,4051
S,2328,9312020,283,0,0,8089
S,2329,9316020,392,0,0,11947
S,2330,9320020,486,0,0,15910
S,2331,9324020,449,0,0,19872
S,2332,9328020,317,0,0,23867
S,2333,9332020,283,0,0,28092
S,2334,9336020,394,0,0,31950
S,2335,9340020,489,0,0,35852
S,2336,9344020,451,0,0,40057
S,2337,9348020,318,0,0,43813
S,2338,9352020,282,0,0,48098
S,2339,9356024,394,0,0,51935
S,2340,9360020,489,0,0,56023
S,2341,9364020,450,0,0,59997
S,2342,9368020,316,0,0,63808
S,2343,9372020,281,0,0,2501
S,2344,9376020,394,0,0,6457
S,2345,9380020,489,0,0,10491
S,2346,9384020,449,0,0,14384
S,2347,9388020,316,0,0,14188
S,2348,9392024,281,0,0,18210
S,2349,9396020,395,0,0,22301
S,2350,9400020,493,0,0,26264
S,2351,9404020,455,0,0,30227
S,2352,9408020,323,0,0,34536
S,2353,9412020,288,0,0,38186
S,2354,9416020,401,0,0,42360
S,2355,9420020,498,0,0,46266
S,2356,9424020,459,0,0,50404
S,2357,9428020,326,0,0,54472
S,2358,9432020,292,0,0,58185
S,2359,9436024,403,0,0,62291
S,2360,9440020,493,0,0,849
S,2361,9444020,449,0,0,4828
S,2362,9448020,313,0,0,8903
S,2363,9452020,277,0,0,12618
S,2364,9456020,386,0,0,16826
S,2365,9460020,477,0,0,20804
S,2366,9464024,432,0,0,24774
S,2367,9468020,295,0,0,28924
S,2368,9472020,259,0,0,32967
S,2369,9476020,369,0,0,40724
S,2370,9480020,461,0,0,44875
S,2371,9484024,418,0,0,48777
S,2372,9488020,285,0,0,52829
S,2373,9492020,252,0,0,57117
S,2374,9496020,363,0,0,60777
S,2375,9500024,455,0,0,64872
S,2376,9504020,412,0,0,3409
S,2377,9508020,279,0,0,7291
S,2378,9512020,246,0,0,11641
S,2379,9516020,356,0,0,15178
S,2380,9520020,447,0,0,19446
���j
S,382,952802I��b�b�b�����j
S,2383,9532020,233,0,0,31555
S,2384,9536020,345,0,0,35468
S,2385,9540020,454,0,0,39346
S,2386,9544020,453,0,0,43346
S,2387,9548020,382,0,0,47176
S,2388,9552020,411,0,0,51402
S,2389,9556020,563,0,0,56259
S,2390,9560020,646,0,0,54421
S,2391,9564020,548,0,0,58518
S,2392,9568020,344,0,0,63365
S,2393,9572020,256,0,0,1663
S,2394,9576020,324,0,0,5848
S,2395,9580020,391,0,0,9658
S,2396,9584020,350,0,0,13572
S,2397,9588020,233,0,0,17426
S,2398,9592020,205,0,0,21973
S,2399,9596020,302,0,0,25751
S,2400,9600020,378,0,0,29852
S,2401,9604020,338,0,0,33557
S,2402,9608020,225,0,0,37445
S,2403,9612020,200,0,0,41933
S,2404,9616020,297,0,0,45643
S,2405,9620020,373,0,0,49846
S,2406,9624020,336,0,0,53616
S,2407,9628020,228,0,0,57445
S,2408,9632024,204,0,0,61486
S,2409,9636020,294,0,0,104
S,2410,9640020,364,0,0,4289
S,2411,9644020,328,0,0,12100
S,2412,9648020,224,0,0,16011
S,2413,9652020,196,0,0,19982
S,2414,9656024,271,0,0,24106
S,2415,9660020,319,0,0,28343
S,2416,9664020,266,0,0,32509
S,2417,9668020,138,0,0,36060
S,2418,9672020,91,0,0,40174
S,2419,9676020,126,0,0,44394
S,2420,9680020,141,0,0,48638
S,2421,9684024,104,0,0,52662
S,2422,9688020,4,0,0,55861
S,2423,9692020,9,0,0,60057
S,2424,9696020,13,0,0,64242
S,2425,9700020,30,0,0,2887
S,2426,9704020,249,0,0,6979
S,2427,9708020,675,1,1,9912
S,2428,9712020,675,1,0,16095
S,2429,9716020,675,1,0,20094
S,2430,9720020,676,1,0,24474
S,2431,9724020,669,0,0,27394
S,2432,9728020,669,0,0,31645
S,2433,9732020,668,0,0,29757
S,2434,9736020,668,0,0,34014
S,2435,9740024,664,0,0,38263
S,2436,9744020,543,0,0,42395
S,2437,9748020,368,0,0,46677
S,2438,9752020,293,0,0,50659
S,2439,9756020,300,0,0,54603
S,2440,9760020,328,0,0,58688
S,2441,9764020,344,0,0,62705
S,2442,9768020,345,0,0,1042
S,2443,9772020,342,0,0,5052
S,2444,9776020,339,0,0,9182
S,2445,9780020,337,0,0,13181
S,2446,9784024,336,0,0,17043
S,2447,9788024,337,0,0,21043
S,2448,9792020,338,0,0,25155
S,2449,9796020,339,0,0,29155
S,2450,9800020,338,0,0,33025
S,2451,9804020,337,0,0,37027
S,2452,9808020,338,0,0,41159
S,2453,9812024,437,0,0,45197
S,2454,9816020,675,1,1,49268
S,2455,9820020,676,1,1,53458
S,2456,9824020,676,1,1,57533
S,2457,9828020,359,0,0,65247
S,2458,9832020,234,0,0,4018
S,2459,9836020,266,0,0,7667
S,2460,9840020,327,0,0,11737
S,2461,9844024,355,0,0,15696
S,2462,9848020,353,0,0,19645
S,2463,9852020,343,0,0,23594
S,2464,9856020,337,0,0,27763
S,2465,9860020,335,0,0,31692
S,2466,9864020,335,0,0,35631
S,2467,9868024,336,0,0,39581
S,2468,9872020,337,0,0,43767
S,2469,9876020,337,0,0,47702
S,2470,9880020,336,0,0,51636
S,2471,9884020,335,0,0,55562
S,2472,9888020,335,0,0,59749
S,2473,9892024,336,0,0,63703
S,2474,9896020,337,0,0,2104
S,2475,9900020,337,0,0,1945
S,2476,9904020,338,0,0,6141
S,2477,9908020,343,0,0,10073
S,2478,9912020,344,0,0,14005
S,2479,9916020,368,0,0,17980
S,2480,9920020,396,0,0,22207
S,2481,9924020,430,0,0,25916
S,2482,9928020,380,0,0,29965
S,2483,9932024,336,0,0,33932
S,2484,9936020,323,0,0,38132
S,2485,9940024,328,0,0,42066
S,2486,9944020,334,0,0,46011
S,2487,9948020,338,0,0,49926
S,2488,9952020,338,0,0,54121
S,2489,9956024,338,0,0,58052
S,2490,9960020,336,0,0,61993
S,2491,9964020,335,0,0,408
S,2492,9968020,336,0,0,4576
S,2493,9972020,337,0,0,8512
S,2494,9976020,337,0,0,12451
S,2495,9980020,337,0,0,16386
S,2496,9984020,337,0,0,20509
S,2497,9988020,337,0,0,28604
S,2498,9992020,338,0,0,32604
S,2499,9996020,340,0,0,36603
S,2500,10000020,338,0,0,40602
S,2501,10004020,337,0,0,44600
S,2502,10008020,336,0,0,48602
S,2503,10012020,337,0,0,52602
S,2504,10016020,338,0,0,56598
S,2505,10020020,338,0,0,60599
S,2506,10024020,338,0,0,64596
S,2507,10028020,337,0,0,3063
S,2508,10032020,337,0,0,7056
S,2509,10036020,338,0,0,11058
S,2510,10040020,337,0,0,15058
S,2511,10044020,336,0,0,19058
S,2512,10048020,337,0,0,23052
S,2513,10052020,337,0,0,27053
S,2514,10056020,338,0,0,31053
S,2515,10060020,342,0,0,35048
S,2516,10064020,340,0,0,39053
S,2517,10068020,336,0,0,43048
S,2518,10072020,338,0,0,42953
S,2519,10076020,339,0,0,46953
S,2520,10080020,338,0,0,50951
S,2521,10084020,338,0,0,54950
S,2522,10088020,338,0,0,58949
S,2523,10092020,341,0,0,62947
S,2524,10096020,356,0,0,1462
S,2525,10100024,377,0,0,5382
S,2526,10104020,369,0,0,9441
S,2527,10108020,349,0,0,13420
S,2528,10112020,336,0,0,17470
S,2529,10116024,333,0,0,21390
S,2530,10120020,335,0,0,25443
S,2531,10124020,337,0,0,29404
S,2532,10128020,338,0,0,33464
S,2533,10132020,338,0,0,37401
S,2534,10136020,339,0,0,41467
S,2535,10140020,339,0,0,45402
S,2536,10144020,346,0,0,49468
S,2537,10148020,676,1,1,57187
S,2538,10152020,675,1,1,61319
S,2539,10156020,464,1,0,64341
S,2540,10160020,675,1,0,2112
S,2541,10164020,671,0,0,7389
S,2542,10168020,669,0,0,11580
S,2543,10172020,668,0,0,15772
S,2544,10176020,631,0,0,19720
S,2545,10180020,442,0,0,23908
S,2546,10184020,310,0,0,27915
S,2547,10188020,286,0,0,31874
S,2548,10192024,312,0,0,36047
S,2549,10196020,337,0,0,39947
S,2550,10200020,344,0,0,44001
S,2551,10204020,341,0,0,47949
S,2552,10208020,336,0,0,52007
S,2553,10212020,335,0,0,55961
S,2554,10216024,335,0,0,60022
S,2555,10220020,335,0,0,63963
S,2556,10224020,335,0,0,2491
S,2557,10228020,335,0,0,6426
S,2558,10232020,335,0,0,10489
S,2559,10236020,336,0,0,14407
S,2560,10240020,336,0,0,19416
S,2561,10244020,335,0,0,17510
S,2562,10248020,335,0,0,21637
S,2563,10252020,336,0,0,25915
S,2564,10256020,336,0,0,30044
S,2565,10260020,336,0,0,34301
S,2566,10264020,335,0,0,38401
S,2567,10268020,335,0,0,42656
S,2568,10272024,336,0,0,46812
S,2569,10276020,337,0,0,51056
S,2570,10280020,336,0,0,55186
S,2571,10284024,336,0,0,57407
S,2572,10288024,336,0,0,61528
S,2573,10292020,337,0,0,245
S,2574,10296020,338,0,0,4373
S,2575,10300020,339,0,0,8629
S,2576,10304024,338,0,0,12743
S,2577,10308020,339,0,0,17003
S,2578,10312024,340,0,0,21123
S,2579,10316024,339,0,0,25381
S,2580,10320020,339,0,0,29518
S,2581,10324020,340,0,0,33768
S,2582,10328020,340,0,0,39947
S,2583,10332024,342,0,0,44196
S,2584,10336020,346,0,0,48331
S,2585,10340024,309,0,0,52489
S,2586,10344020,221,0,0,56334
S,2587,10348024,130,0,0,61436
S,2588,10352020,109,0,0,65400
S,2589,10356020,153,0,0,3886
S,2590,10360020,185,0,0,7917
S,2591,10364020,164,0,0,11857
S,2592,10368020,110,0,0,16068
S,2593,10372020,104,0,0,18787
S,2594,10376020,151,0,0,22911
S,2595,10380020,176,0,0,26873
S,2596,10384020,135,0,0,30889
S,2597,10388020,60,0,0,34995
S,2598,10392020,38,0,0,39754
S,2599,10396020,98,0,0,43951
S,2600,10400020,177,0,0,47891
S,2601,10404020,212,0,0,51927
S,2602,10408024,209,0,0,55869
S,2603,10412020,244,0,0,54709
S,2604,10416024,323,0,0,58473
S,2605,10420020,383,0,0,62712
S,2606,10424020,349,0,0,1336
S,2607,10428020,279,0,0,5587
S,2608,10432020,283,0,0,9632
S,2609,10436020,359,0,0,13949
S,2610,10440020,410,0,0,18019
S,2611,10444020,330,0,0,22290
S,2612,10448020,234,0,0,26325
S,2613,10452024,236,0,0,30334
S,2614,10456020,311,0,0,32842
S,2615,10460020,355,0,0,37055
S,2616,10464020,249,0,0,41290
S,2617,10468024,147,0,0,45197
S,2618,10472020,202,0,0,49211
S,2619,10476020,375,0,0,53799
S,2620,10480020,517,0,0,57650
S,2621,10484020,473,0,0,62031
S,2622,10488020,336,0,0,794
S,2623,10492020,341,0,0,5054
S,2624,10496024,486,0,0,8990
S,2625,10500024,572,0,0,16229
S,2626,10504020,474,0,0,19564
S,2627,10508024,336,0,0,23883
S,2628,10512020,365,0,0,27933
S,2629,10516024,526,0,0,32467
S,2630,10520020,600,0,0,36202
S,2631,10524020,493,0,0,40574
S,2632,10528020,359,0,0,44699
S,2633,10532024,396,0,0,49117
S,2634,10536020,555,0,0,52373
S,2635,10540024,629,0,0,56166
S,2636,10544020,536,0,0,60256
S,2637,10548020,408,0,0,63553
S,2638,10552020,427,0,0,2448
S,2639,10556020,569,0,0,6819
S,2640,10560024,638,0,0,10903
S,2641,10564020,555,0,0,14703
S,2642,10568020,429,0,0,18954
S,2643,10572020,442,0,0,23484
S,2644,10576020,568,0,0,26713
S,2645,10580024,636,0,0,30896
S,2646,10584020,558,0,0,30477
S,2647,10588024,439,0,0,33849
S,2648,10592020,446,0,0,37971
S,2649,10596020,567,0,0,42619
S,2650,10600020,631,0,0,46808
S,2651,10604020,558,0,0,50464
S,2652,10608020,442,0,0,54995
S,2653,10612020,445,0,0,58997
S,2654,10616020,558,0,0,62469
S,2655,10620020,626,0,0,1275
S,2656,10624020,566,0,0,5344
S,2657,10628020,461,0,0,8378
S,2658,10632020,465,0,0,12357
S,2659,10636020,573,0,0,16904
S,2660,10640020,630,0,0,21028
S,2661,10644020,562,0,0,25281
S,2662,10648020,455,0,0,29399
S,2663,10652020,461,0,0,33404
S,2664,10656024,566,0,0,37348
S,2665,10660024,619,0,0,40984
S,2666,10664020,549,0,0,45241
S,2667,10668020,443,0,0,52358
S,2668,10672020,449,0,0,56475
S,2669,10676020,554,0,0,61393
S,2670,10680020,610,0,0,65146
S,2671,10684020,544,0,0,3736
S,2672,10688024,444,0,0,7543
S,2673,10692020,452,0,0,11938
S,2674,10696020,554,0,0,15791
S,2675,10700020,604,0,0,19576
S,2676,10704020,541,0,0,23646
S,2677,10708020,443,0,0,28505
S,2678,10712024,448,0,0,30925
S,2679,10716024,546,0,0,35726
S,2680,10720020,596,0,0,39835
S,2681,10724020,534,0,0,43640
S,2682,10728020,438,0,0,47419
S,2683,10732020,446,0,0,51858
S,2684,10736020,541,0,0,55638
S,2685,10740020,589,0,0,59815
S,2686,10744020,527,0,0,63494
S,2687,10748020,432,0,0,2847
S,2688,10752020,441,0,0,7049
S,2689,10756020,536,0,0,6025
S,2690,10760020,585,0,0,10043
S,2691,10764020,524,0,0,14047
S,2692,10768020,431,0,0,17691
S,2693,10772024,439,0,0,21934
S,2694,10776020,533,0,0,26083
S,2695,10780020,582,0,0,29969
S,2696,10784020,522,0,0,34098
S,2697,10788024,428,0,0,38713
S,2698,10792020,435,0,0,42953
S,2699,10796020,529,0,0,46026
S,2700,10800020,578,0,0,50174
S,2701,10804020,520,0,0,54037
S,2702,10808020,427,0,0,57685
S,2703,10812020,434,0,0,61933
S,2704,10816020,525,0,0,556
S,2705,10820020,572,0,0,4540
S,2706,10824024,514,0,0,8557
S,2707,10828020,426,0,0,13160
S,2708,10832020,434,0,0,17175
S,2709,10836020,526,0,0,20490
S,2710,10840020,571,0,0,28636
S,2711,10844020,511,0,0,31929
S,2712,10848020,422,0,0,35983
S,2713,10852020,431,0,0,40231
S,2714,10856020,521,0,0,44642
S,2715,10860020,567,0,0,48637
S,2716,10864020,509,0,0,52816
S,2717,10868020,420,0,0,57000
S,2718,10872020,429,0,0,61250
S,2719,10876020,520,0,0,64582
S,2720,10880020,564,0,0,3110
S,2721,10884020,506,0,0,6217
S,2722,10888020,417,0,0,10481
S,2723,10892020,426,0,0,14683
S,2724,10896020,518,0,0,19088
S,2725,10900020,563,0,0,23044
S,2726,10904020,504,0,0,27180
S,2727,10908020,416,0,0,31445
S,2728,10912020,425,0,0,35507
S,2729,10916020,513,0,0,39098
S,2730,10920020,558,0,0,43126
S,2731,10924020,502,0,0,41999
S,2732,10928024,419,0,0,46129
S,2733,10932020,429,0,0,50322
S,2734,10936020,518,0,0,55002
S,2735,10940020,561,0,0,58956
S,2736,10944020,502,0,0,62964
S,2737,10948020,415,0,0,1597
S,2738,10952024,424,0,0,5861
S,2739,10956024,514,0,0,9454
S,2740,10960020,561,0,0,13494
S,2741,10964024,504,0,0,18386
S,2742,10968020,414,0,0,20571
S,2743,10972020,420,0,0,24768
S,2744,10976020,508,0,0,28919
S,2745,10980020,554,0,0,33408
S,2746,10984020,497,0,0,37304
S,2747,10988020,410,0,0,41586
S,2748,10992020,416,0,0,45615
S,2749,10996020,501,0,0,49883
S,2750,11000020,545,0,0,53484
S,2751,11004020,491,0,0,58247
S,2752,11008020,409,0,0,62442
S,2753,11012020,417,0,0,3196
S,2754,11016020,504,0,0,7366
S,2755,11020024,548,0,0,11959
S,2756,11024020,492,0,0,15636
S,2757,11028020,409,0,0,19904
S,2758,11032020,419,0,0,24089
S,2759,11036020,504,0,0,28387
S,2760,11040020,547,0,0,32087
S,2761,11044024,491,0,0,36658
S,2762,11048020,408,0,0,40878
S,2763,11052020,418,0,0,43061
S,2764,11056020,502,0,0,47110
S,2765,11060020,540,0,0,52045
S,2766,11064020,484,0,0,55638
S,2767,11068020,412,0,0,59791
S,2768,11072020,446,0,0,63954
S,2769,11076020,568,0,0,2548
S,2770,11080024,649,0,0,6570
S,2771,11084020,620,0,0,10466
S,2772,11088020,535,0,0,14590
S,2773,11092020,491,0,0,19363
S,2774,11096024,497,0,0,17494
S,2775,11100020,491,0,0,21729
S,2776,11104020,434,0,0,25815
S,2777,11108020,373,0,0,30129
S,2778,11112020,400,0,0,34231
S,2779,11116020,487,0,0,38497
S,2780,11120020,523,0,0,42474
S,2781,11124020,463,0,0,46735
S,2782,11128020,382,0,0,51165
S,2783,11132024,393,0,0,55175
S,2784,11136024,476,0,0,59277
S,2785,11140020,513,0,0,62461
S,2786,11144020,454,0,0,218
S,2787,11148020,371,0,0,4558
S,2788,11152020,375,0,0,8621
S,2789,11156020,448,0,0,12731
S,2790,11160020,504,0,0,16992
S,2791,11164020,472,0,0,21217
S,2792,11168020,391,0,0,25297
S,2793,11172020,404,0,0,29539
S,2794,11176020,479,0,0,33739
S,2795,11180020,518,0,0,40883
S,2796,11184020,472,0,0,44042
S,2797,11188020,394,0,0,48377
S,2798,11192020,382,0,0,52718
S,2799,11196020,355,0,0,56658
S,2800,11200020,339,0,0,60701
S,2801,11204020,337,0,0,65214
S,2802,11208020,340,0,0,3673
S,2803,11212020,344,0,0,8180
S,2804,11216024,345,0,0,12190
S,2805,11220020,344,0,0,16178
S,2806,11224020,343,0,0,18654
S,2807,11228020,343,0,0,22655
S,2808,11232020,344,0,0,26655
S,2809,11236020,344,0,0,31166
S,2810,11240020,343,0,0,35154
S,2811,11244020,343,0,0,39667
S,2812,11248020,343,0,0,43668
S,2813,11252020,344,0,0,47674
S,2814,11256020,344,0,0,52185
S,2815,11260020,344,0,0,56184
S,2816,11264020,343,0,0,60136
S,2817,11268020,343,0,0,58697
S,2818,11272024,344,0,0,62889
S,2819,11276020,344,0,0,1027
S,2820,11280020,344,0,5220
S,2821,11284020,343,0,0,9418
S,2822,11288020,343,0,0,14121
S,2823,11292020,344,0,0,18311
S,2824,11296020,344,0,0,22504
S,2825,11300024,344,0,0,26181
S,2826,11304020,343,0,0,30373
S,2827,11308020,343,0,0,33028
S,2828,11312024,344,0,0,37216
S,2829,11316024,344,0,0,41409
S,2830,11320020,344,0,0,45102
S,2831,11324020,343,0,0,49280
S,2832,11328020,343,0,0,53503
S,2833,11332020,344,0,0,58193
S,2834,11336020,344,0,0,62386
S,2835,11340020,344,0,0,530
S,2836,11344024,343,0,0,4726
S,2837,11348020,343,0,0,8923
S,2838,11352020,344,0,0,15671
S,2839,11356020,344,0,0,19862
S,2840,11360020,343,0,0,24054
S,2841,11364020,325,0,0,27717
S,2842,11368020,292,0,0,31943
S,2843,11372020,312,0,0,36730
S,2844,11376020,376,0,0,40797
S,2845,11380020,394,0,0,44814
S,2846,11384020,315,0,0,48732
S,2847,11388020,247,0,0,53041
S,2848,11392020,267,0,0,56978
S,2849,11396020,343,0,0,59759
S,2850,11400020,384,0,0,63835
S,2851,11404020,330,0,0,2099
S,2852,11408020,261,0,0,6171
S,2853,11412024,268,0,0,10431
S,2854,11416020,334,0,0,15122
S,2855,11420020,377,0,0,19332
S,2856,11424020,335,0,0,23517
S,2857,11428020,274,0,0,27169
S,2858,11432020,283,0,0,31435
S,2859,11436020,347,0,0,29994
S,2860,11440020,390,0,0,34192
S,2861,11444020,341,0,0,38370
S,2862,11448020,277,0,0,42049
S,2863,11452020,291,0,0,46294
S,2864,11456020,360,0,0,50402
S,2865,11460020,396,0,0,55207
S,2866,11464020,329,0,0,59265
S,2867,11468020,256,0,0,63081
S,2868,11472024,270,0,0,1549
S,2869,11476020,341,0,0,5883
S,2870,11480020,382,0,0,8499
S,2871,11484020,332,0,0,12704
S,2872,11488020,266,0,0,16777
S,2873,11492020,274,0,0,20528
S,2874,11496020,336,0,0,24721
S,2875,11500020,372,0,0,29460
S,2876,11504020,331,0,0,33612
S,2877,11508020,273,0,0,37815
S,2878,11512020,281,0,0,41564
S,2879,11516020,339,0,0,45751
S,2880,11520020,371,0,0,49800
S,2881,11524020,329,0,0,56595
S,2882,11528020,272,0,0,60841
S,2883,11532020,281,0,0,64513
S,2884,11536020,337,0,0,3121
S,2885,11540020,369,0,0,7344
S,2886,11544020,331,0,0,12137
S,2887,11548020,275,0,0,16272
S,2888,11552020,283,0,0,20471
S,2889,11556020,338,0,0,24095
S,2890,11560020,368,0,0,28382
S,2891,11564024,328,0,0,31051
S,2892,11568024,270,0,0,35178
S,2893,11572020,276,0,0,39389
S,2894,11576020,337,0,0,43131
S,2895,11580020,377,0,0,47346
S,2896,11584020,341,0,0,51361
S,2897,11588024,286,0,0,56135
S,2898,11592020,299,0,0,60317
S,2899,11596020,363,0,0,64124
S,2900,11600020,393,0,0,2808
S,2901,11604020,330,0,0,6810
S,2902,11608020,264,0,0,5435
S,2903,11612020,282,0,0,9608
S,2904,11616020,355,0,0,13726
S,2905,11620020,396,0,0,17616
S,2906,11624020,336,0,0,21743
S,2907,11628020,267,0,0,26389
S,2908,11632020,282,0,0,30563
S,2909,11636020,355,0,0,34747
S,2910,11640020,396,0,0,38583
S,2911,11644020,336,0,0,42698
S,2912,11648020,267,0,0,46798
S,2913,11652020,283,0,0,49535
S,2914,11656020,355,0,0,53732
S,2915,11660020,396,0,0,57514
S,2916,11664020,337,0,0,61456
S,2917,11668020,270,0,0,237
S,2918,11672020,287,0,0,4895
S,2919,11676020,361,0,0,9160
S,2920,11680020,401,0,0,13151
S,2921,11684020,335,0,0,16928
S,2922,11688024,264,0,0,21128
S,2923,11692020,285,0,0,27952
S,2924,11696020,364,0,0,32038
S,2925,11700020,406,0,0,36221
S,2926,11704020,335,0,0,40007
S,2927,11708020,262,0,0,44207
S,2928,11712020,286,0,0,48328
S,2929,11716020,370,0,0,52997
S,2930,11720020,414,0,0,57098
S,2931,11724020,338,0,0,61031
S,2932,11728020,263,0,0,65109
S,2933,11732020,289,0,0,3795
S,2934,11736024,376,0,0,6501
S,2935,11740020,419,0,0,10515
S,2936,11744020,336,0,0,14735
S,2937,11748020,260,0,0,18554
S,2938,11752020,290,0,0,22719
S,2939,11756020,382,0,0,27458
S,2940,11760020,426,0,0,31729
S,2941,11764020,340,0,0,35758
S,2942,11768020,263,0,0,39454
S,2943,11772020,294,0,0,43678
S,2944,11776020,392,0,0,47791
S,2945,11780020,432,0,0,46390
S,2946,11784020,339,0,0,50486
S,2947,11788020,261,0,0,54465
S,2948,11792020,298,0,0,58505
S,2949,11796020,402,0,0,62608
S,2950,11800020,445,0,0,1883
S,2951,11804024,355,0,0,5928
S,2952,11808020,280,0,0,10032
S,2953,11812020,324,0,0,14029
S,2954,11816020,440,0,0,18130
S,2955,11820020,475,0,0,20752
S,2956,11824020,373,0,0,25049
S,2957,11828020,291,0,0,28974
S,2958,11832020,342,0,0,32952
S,2959,11836020,467,0,0,37020
S,2960,11840020,498,0,0,41154
S,2961,11844020,386,0,0,45843
S,2962,11848020,294,0,0,50004
S,2963,11852020,343,0,0,53892
S,2964,11856020,479,0,0,57963
S,2965,11860020,535,0,0,61698
S,2966,11864020,451,0,0,3380
S,2967,11868020,379,0,0,7469
S,2968,11872020,466,0,0,11755
S,2969,11876020,599,0,0,16335
S,2970,11880020,547,0,0,20312
S,2971,11884020,337,0,0,24459
S,2972,11888020,224,0,0,28253
S,2973,11892020,291,0,0,32575
S,2974,11896020,432,0,0,36431
S,2975,11900020,497,0,0,40623
S,2976,11904020,418,0,0,44707
S,2977,11908024,322,0,0,47598
S,2978,11912020,354,0,0,51489
S,2979,11916020,470,0,0,55348
S,2980,11920020,510,0,0,59515
S,2981,11924020,413,0,0,63673
S,2982,11928020,321,0,0,2949
S,2983,11932020,365,0,0,6920
S,2984,11936020,488,0,0,11234
S,2985,11940020,518,0,0,14765
S,2986,11944020,409,0,0,19153
S,2987,11948020,316,0,0,17877
S,2988,11952020,367,0,0,21985
