S,0,12,502,0,0
S,1,4008,502,0,0
S,2,8008,502,0,0
S,3,12008,502,0,0
S,4,16008,502,0,0
S,5,20008,502,0,0
S,6,24008,502,0,0
S,7,28012,502,0,0
S,8,32008,502,0,0
S,9,36012,502,0,0
S,10,40008,502,0,0
S,11,44008,502,0,0
S,12,48008,502,0,0
S,13,52012,502,0,0
S,14,56012,502,0,0
S,15,60012,502,0,0
S,16,64012,505,0,0
S,17,68008,509,0,0
S,18,72008,513,0,0
S,19,76008,516,0,0
S,20,80008,520,0,0
S,21,84008,524,0,0
S,22,88008,528,0,0
S,23,92012,528,0,0
S,24,96008,524,0,0
S,25,100012,521,0,0
S,26,104008,517,0,0
S,27,108008,514,0,0
S,28,112012,510,0,0
S,29,116008,506,0,0
S,30,120008,503,0,0
S,31,124008,503,0,0
S,32,128008,503,0,0
S,33,132008,503,0,0
S,34,136008,503,0,0
S,35,140008,503,0,0
S,36,144008,503,0,0
S,37,148008,503,0,0
S,38,152012,503,0,0
S,39,156008,503,0,0
S,40,160008,496,0,0
S,41,164012,481,0,0
S,42,168008,466,0,0
S,43,172008,466,0,0
S,44,176008,481,0,0
S,45,180008,496,0,0
S,46,184008,503,0,0
S,47,188008,503,0,0
S,48,192008,588,0,0
S,49,196008,673,0,0
S,50,200008,759,0,0
S,51,204008,674,0,0
S,52,208008,589,0,0
S,53,212008,504,0,0
S,54,216008,504,0,0
S,55,220008,488,0,0
S,56,224008,472,0,0
S,57,228008,456,0,0
S,58,232008,439,0,0
S,59,236008,456,0,0
S,60,240008,472,0,0
S,61,244008,488,0,0
S,62,248008,504,0,0
S,63,252008,504,0,0
S,64,256008,504,0,0
S,65,260008,504,0,0
S,66,264008,504,0,0
S,67,268008,504,0,0
S,68,272012,504,0,0
S,69,276008,504,0,0
S,70,280008,504,0,0
S,71,284012,504,0,0
S,72,288008,507,0,0
S,73,292008,513,0,0
S,74,296012,518,0,0
S,75,300008,524,0,0
S,76,304008,529,0,0
S,77,308012,535,0,0
S,78,312008,540,0,0
S,79,316012,545,0,0
S,80,320008,550,0,0
S,81,324008,556,0,0
S,82,328008,561,0,0
S,83,332008,566,0,0
S,84,336008,571,0,0
S,85,340008,576,0,0
S,86,344008,582,0,0
S,87,348008,587,0,0
S,88,352008,587,0,0
S,89,356008,582,0,0
S,90,360012,576,0,0
S,91,364008,571,0,0
S,92,368008,566,0,0
S,93,372012,561,0,0
S,94,376008,556,0,0
S,95,380008,550,0,0
S,96,384008,545,0,0
S,97,388012,540,0,0
S,98,392008,535,0,0
S,99,396008,529,0,0
S,100,400012,525,0,0
S,101,404008,520,0,0
S,102,408008,515,0,0
S,103,412008,509,0,0
S,104,416008,506,0,0
S,105,420008,506,0,0
S,106,424008,506,0,0
S,107,428008,506,0,0
S,108,432008,506,0,0
S,109,436008,506,0,0
S,110,440008,506,0,0
S,111,444008,506,0,0
S,112,448008,506,0,0
S,113,452008,506,0,0
S,114,456008,506,0,0
S,115,460008,506,0,0
S,116,464008,506,0,0
S,117,468008,506,0,0
S,118,472008,506,0,0
S,119,476008,506,0,0
S,120,480008,506,0,0
S,121,484012,506,0,0
S,122,488008,506,0,0
S,123,492008,506,0,0
S,124,496008,506,0,0
S,125,500008,507,0,0
S,126,504008,507,0,0
S,127,508008,507,0,0
S,128,512008,507,0,0
S,129,516008,507,0,0
S,130,520012,507,0,0
S,131,524008,507,0,0
S,132,528008,507,0,0
S,133,532008,507,0,0
S,134,536008,507,0,0
S,135,540012,507,0,0
S,136,544012,510,0,0
S,137,548012,514,0,0
S,138,552008,518,0,0
S,139,556008,521,0,0
S,140,560008,525,0,0
S,141,564008,529,0,0
S,142,568008,533,0,0
S,143,572008,533,0,0
S,144,576008,529,0,0
S,145,580008,525,0,0
S,146,584008,521,0,0
S,147,588012,518,0,0
S,148,592008,514,0,0
S,149,596008,510,0,0
S,150,600008,508,0,0
S,151,604008,508,0,0
S,152,608008,508,0,0
S,153,612008,508,0,0
S,154,616008,508,0,0
S,155,620008,508,0,0
S,156,624008,508,0,0
S,157,628008,508,0,0
S,158,632008,508,0,0
S,159,636012,508,0,0
S,160,640008,501,0,0
S,161,644008,486,0,0
S,162,648008,471,0,0
S,163,652008,471,0,0
S,164,656008,486,0,0
S,165,660008,501,0,0
S,166,664012,508,0,0
S,167,668008,508,0,0
S,168,672008,593,0,0
S,169,676008,678,0,0
S,170,680012,762,0,0
S,171,684008,678,0,0
S,172,688008,593,0,0
S,173,692008,508,0,0
S,174,696008,508,0,0
S,175,700008,493,0,0
S,176,704008,477,0,0
S,177,708008,461,0,0
S,178,712012,445,0,0
S,179,716008,461,0,0
S,180,720008,477,0,0
S,181,724008,493,0,0
S,182,728008,509,0,0
S,183,732008,509,0,0
S,184,736008,509,0,0
S,185,740008,509,0,0
S,186,744008,509,0,0
S,187,748008,509,0,0
S,188,752008,509,0,0
S,189,756008,509,0,0
S,190,760008,509,0,0
S,191,764008,509,0,0
S,192,768008,512,0,0
S,193,772008,518,0,0
S,194,776008,523,0,0
S,195,780008,528,0,0
S,196,784008,533,0,0
S,197,788008,539,0,0
S,198,792008,544,0,0
S,199,796008,549,0,0
S,200,800012,555,0,0
S,201,804008,561,0,0
S,202,808008,566,0,0
S,203,812012,571,0,0
S,204,816012,576,0,0
S,205,820008,581,0,0
S,206,824008,587,0,0
S,207,828008,592,0,0
S,208,832012,592,0,0
S,209,836008,587,0,0
S,210,840008,581,0,0
S,211,844008,576,0,0
S,212,848008,571,0,0
S,213,852012,566,0,0
S,214,856008,561,0,0
S,215,860008,555,0,0
S,216,864008,550,0,0
S,217,868008,545,0,0
S,218,872008,540,0,0
S,219,876008,534,0,0
S,220,880008,529,0,0
S,221,884008,524,0,0
S,222,888008,519,0,0
S,223,892008,513,0,0
S,224,896008,510,0,0
S,225,900008,511,0,0
S,226,904008,511,0,0
S,227,908008,511,0,0
S,228,912008,511,0,0
S,229,916012,511,0,0
S,230,920012,511,0,0
S,231,924008,511,0,0
S,232,928012,511,0,0
S,233,932008,511,0,0
S,234,936008,511,0,0
S,235,940008,511,0,0
S,236,944008,511,0,0
S,237,948008,511,0,0
S,238,952008,511,0,0
S,239,956008,511,0,0
S,240,960008,511,0,0
S,241,964008,511,0,0
S,242,968008,511,0,0
S,243,972008,511,0,0
S,244,976008,511,0,0
S,245,980008,511,0,0
S,246,984008,511,0,0
S,247,988012,511,0,0
S,248,992008,511,0,0
S,249,996008,511,0,0
S,250,1000008,512,0,0
S,251,1004008,512,0,0
S,252,1008008,512,0,0
S,253,1012008,512,0,0
S,254,1016008,512,0,0
S,255,1020008,512,0,0
S,256,1024008,515,0,0
S,257,1028008,519,0,0
S,258,1032008,523,0,0
S,259,1036008,526,0,0
S,260,1040012,530,0,0
S,261,1044008,534,0,0
S,262,1048012,538,0,0
S,263,1052008,538,0,0
S,264,1056008,534,0,0
S,265,1060008,530,0,0
S,266,1064008,526,0,0
S,267,1068008,523,0,0
S,268,1072008,519,0,0
S,269,1076008,515,0,0
S,270,1080008,512,0,0
S,271,1084008,512,0,0
S,272,1088008,512,0,0
S,273,1092008,512,0,0
S,274,1096008,512,0,0
S,275,1100008,513,0,0
S,276,1104008,513,0,0
S,277,1108008,513,0,0
S,278,1112008,513,0,0
S,279,1116008,513,0,0
S,280,1120008,506,0,0
S,281,1124008,491,0,0
S,282,1128008,476,0,0
S,283,1132008,476,0,0
S,284,1136008,491,0,0
S,285,1140008,506,0,0
S,286,1144008,513,0,0
S,287,1148008,513,0,0
S,288,1152012,598,0,0
S,289,1156008,683,0,0
S,290,1160008,768,0,0
S,291,1164012,682,0,0
S,292,1168008,598,0,0
S,293,1172008,513,0,0
S,294,1176008,513,0,0
S,295,1180008,497,0,0
S,296,1184008,481,0,0
S,297,1188008,465,0,0
S,298,1192008,448,0,0
S,299,1196008,465,0,0
S,300,1200008,482,0,0
S,301,1204008,498,0,0
S,302,1208012,514,0,0
S,303,1212008,514,0,0
S,304,1216008,514,0,0
S,305,1220008,514,0,0
S,306,1224008,514,0,0
S,307,1228008,514,0,0
S,308,1232008,514,0,0
S,309,1236008,514,0,0
S,310,1240008,514,0,0
S,311,1244008,514,0,0
S,312,1248012,517,0,0
S,313,1252008,523,0,0
S,314,1256008,528,0,0
S,315,1260008,533,0,0
S,316,1264008,538,0,0
S,317,1268008,544,0,0
S,318,1272008,549,0,0
S,319,1276008,554,0,0
S,320,1280008,559,0,0
S,321,1284008,565,0,0
S,322,1288008,570,0,0
S,323,1292008,575,0,0
S,324,1296008,580,0,0
S,325,1300008,586,0,0
S,326,1304008,592,0,0
S,327,1308012,597,0,0
S,328,1312008,597,0,0
S,329,1316008,592,0,0
S,330,1320008,586,0,0
S,331,1324008,581,0,0
S,332,1328008,576,0,0
S,333,1332008,571,0,0
S,334,1336008,566,0,0
S,335,1340008,560,0,0
S,336,1344008,555,0,0
S,337,1348008,550,0,0
S,338,1352008,545,0,0
S,339,1356012,539,0,0
S,340,1360008,534,0,0
S,341,1364008,529,0,0
S,342,1368012,524,0,0
S,343,1372008,518,0,0
S,344,1376008,515,0,0
S,345,1380008,515,0,0
S,346,1384008,515,0,0
S,347,1388012,515,0,0
S,348,1392008,515,0,0
S,349,1396008,515,0,0
S,350,1400012,516,0,0
S,351,1404008,516,0,0
S,352,1408008,516,0,0
S,353,1412008,516,0,0
S,354,1416008,516,0,0
S,355,1420008,516,0,0
S,356,1424008,516,0,0
S,357,1428008,516,0,0
S,358,1432008,516,0,0
S,359,1436008,516,0,0
S,360,1440012,516,0,0
S,361,1444008,516,0,0
S,362,1448008,516,0,0
S,363,1452008,516,0,0
S,364,1456008,516,0,0
S,365,1460012,516,0,0
S,366,1464008,516,0,0
S,367,1468008,516,0,0
S,368,1472008,516,0,0
S,369,1476008,516,0,0
S,370,1480008,516,0,0
S,371,1484008,516,0,0
S,372,1488008,516,0,0
S,373,1492008,516,0,0
S,374,1496008,516,0,0
S,375,1500008,517,0,0
S,376,1504008,520,0,0
S,377,1508008,524,0,0
S,378,1512008,528,0,0
S,379,1516008,531,0,0
S,380,1520008,535,0,0
S,381,1524008,539,0,0
S,382,1528008,543,0,0
S,383,1532008,543,0,0
S,384,1536008,539,0,0
S,385,1540008,535,0,0
S,386,1544008,531,0,0
S,387,1548008,528,0,0
S,388,1552008,524,0,0
S,389,1556008,520,0,0
S,390,1560008,517,0,0
S,391,1564008,517,0,0
S,392,1568008,517,0,0
S,393,1572012,517,0,0
S,394,1576008,517,0,0
S,395,1580008,517,0,0
S,396,1584008,517,0,0
S,397,1588008,517,0,0
S,398,1592008,517,0,0
S,399,1596008,517,0,0
S,400,1600008,511,0,0
S,401,1604012,496,0,0
S,402,1608008,481,0,0
S,403,1612008,481,0,0
S,404,1616008,496,0,0
S,405,1620008,511,0,0
S,406,1624008,518,0,0
S,407,1628008,518,0,0
S,408,1632008,603,0,0
S,409,1636008,688,0,0
S,410,1640008,773,0,0
S,411,1644008,688,0,0
S,412,1648008,603,0,0
S,413,1652008,518,0,0
S,414,1656008,518,0,0
S,415,1660008,502,0,0
S,416,1664012,486,0,0
S,417,1668008,470,0,0
S,418,1672012,454,0,0
S,419,1676008,470,0,0
S,420,1680008,486,0,0
S,421,1684012,502,0,0
S,422,1688008,518,0,0
S,423,1692008,518,0,0
S,424,1696008,518,0,0
S,425,1700008,519,0,0
S,426,1704008,519,0,0
S,427,1708008,519,0,0
S,428,1712008,519,0,0
S,429,1716012,519,0,0
S,430,1720008,519,0,0
S,431,1724008,519,0,0
S,432,1728008,522,0,0
S,433,1732008,528,0,0
S,434,1736008,533,0,0
S,435,1740012,538,0,0
S,436,1744008,543,0,0
S,437,1748008,549,0,0
S,438,1752012,554,0,0
S,439,1756008,559,0,0
S,440,1760012,564,0,0
S,441,1764008,570,0,0
S,442,1768008,575,0,0
S,443,1772008,580,0,0
S,444,1776008,585,0,0
S,445,1780008,590,0,0
S,446,1784012,596,0,0
S,447,1788008,601,0,0
S,448,1792008,601,0,0
S,449,1796008,596,0,0
S,450,1800012,591,0,0
S,451,1804008,586,0,0
S,452,1808008,581,0,0
S,453,1812008,576,0,0
S,454,1816008,571,0,0
S,455,1820008,565,0,0
S,456,1824008,560,0,0
S,457,1828008,555,0,0
S,458,1832012,550,0,0
S,459,1836008,544,0,0
S,460,1840008,539,0,0
S,461,1844008,534,0,0
S,462,1848008,529,0,0
S,463,1852008,523,0,0
S,464,1856008,520,0,0
S,465,1860008,520,0,0
S,466,1864008,520,0,0
S,467,1868008,520,0,0
S,468,1872008,520,0,0
S,469,1876008,520,0,0
S,470,1880008,520,0,0
S,471,1884008,520,0,0
S,472,1888008,520,0,0
S,473,1892008,520,0,0
S,474,1896012,520,0,0
S,475,1900008,521,0,0
S,476,1904008,521,0,0
S,477,1908008,521,0,0
S,478,1912008,521,0,0
S,479,1916008,521,0,0
S,480,1920008,521,0,0
S,481,1924008,521,0,0
S,482,1928008,521,0,0
S,483,1932008,521,0,0
S,484,1936008,521,0,0
S,485,1940008,521,0,0
S,486,1944008,521,0,0
S,487,1948008,521,0,0
S,488,1952008,521,0,0
S,489,1956012,521,0,0
S,490,1960008,521,0,0
S,491,1964008,521,0,0
S,492,1968008,521,0,0
S,493,1972008,521,0,0
S,494,1976008,521,0,0
S,495,1980008,521,0,0
S,496,1984012,524,0,0
S,497,1988008,528,0,0
S,498,1992008,532,0,0
S,499,1996008,535,0,0
S,500,2000008,540,0,0
S,501,2004008,544,0,0
S,502,2008012,548,0,0
S,503,2012008,548,0,0
S,504,2016008,544,0,0
S,505,2020008,540,0,0
S,506,2024008,536,0,0
S,507,2028008,533,0,0
S,508,2032008,529,0,0
S,509,2036008,525,0,0
S,510,2040008,522,0,0
S,511,2044008,522,0,0
S,512,2048008,522,0,0
S,513,2052008,522,0,0
S,514,2056008,522,0,0
S,515,2060008,522,0,0
S,516,2064008,522,0,0
S,517,2068008,522,0,0
S,518,2072012,522,0,0
S,519,2076008,522,0,0
S,520,2080008,515,0,0
S,521,2084008,500,0,0
S,522,2088008,485,0,0
S,523,2092008,485,0,0
S,524,2096008,500,0,0
S,525,2100008,514,0,0
S,526,2104012,521,0,0
S,527,2108008,521,0,0
S,528,2112008,606,0,0
S,529,2116008,691,0,0
S,530,2120012,775,0,0
S,531,2124008,691,0,0
S,532,2128008,606,0,0
S,533,2132008,521,0,0
S,534,2136008,521,0,0
S,535,2140008,505,0,0
S,536,2144008,489,0,0
S,537,2148008,473,0,0
S,538,2152008,456,0,0
S,539,2156008,473,0,0
S,540,2160008,489,0,0
S,541,2164008,505,0,0
S,542,2168008,521,0,0
S,543,2172012,521,0,0
S,544,2176008,521,0,0
S,545,2180008,521,0,0
S,546,2184008,521,0,0
S,547,2188008,521,0,0
S,548,2192012,521,0,0
S,549,2196008,521,0,0
S,550,2200008,520,0,0
S,551,2204008,520,0,0
S,552,2208008,523,0,0
S,553,2212008,529,0,0
S,554,2216008,534,0,0
S,555,2220008,539,0,0
S,556,2224008,544,0,0
S,557,2228008,550,0,0
S,558,2232008,555,0,0
S,559,2236008,560,0,0
S,560,2240008,565,0,0
S,561,2244008,571,0,0
S,562,2248008,576,0,0
S,563,2252008,581,0,0
S,564,2256008,586,0,0
S,565,2260012,591,0,0
S,566,2264012,597,0,0
S,567,2268008,602,0,0
S,568,2272008,602,0,0
S,569,2276008,597,0,0
S,570,2280008,591,0,0
S,571,2284008,586,0,0
S,572,2288008,581,0,0
S,573,2292012,576,0,0
S,574,2296008,571,0,0
S,575,2300008,564,0,0
S,576,2304008,559,0,0
S,577,2308008,554,0,0
S,578,2312008,549,0,0
S,579,2316008,543,0,0
S,580,2320008,538,0,0
S,581,2324008,533,0,0
S,582,2328008,528,0,0
S,583,2332008,522,0,0
S,584,2336012,519,0,0
S,585,2340012,519,0,0
S,586,2344008,519,0,0
S,587,2348008,519,0,0
S,588,2352008,519,0,0
S,589,2356008,519,0,0
S,590,2360008,519,0,0
S,591,2364008,519,0,0
S,592,2368008,519,0,0
S,593,2372008,519,0,0
S,594,2376008,519,0,0
S,595,2380012,519,0,0
S,596,2384008,519,0,0
S,597,2388008,519,0,0
S,598,2392008,519,0,0
S,599,2396008,519,0,0
S,600,2400008,518,0,0
S,601,2404008,518,0,0
S,602,2408012,518,0,0
S,603,2412008,518,0,0
S,604,2416008,518,0,0
S,605,2420008,518,0,0
S,606,2424008,518,0,0
S,607,2428012,518,0,0
S,608,2432008,518,0,0
S,609,2436008,518,0,0
S,610,2440008,518,0,0
S,611,2444008,518,0,0
S,612,2448008,518,0,0
S,613,2452008,518,0,0
S,614,2456008,518,0,0
S,615,2460008,518,0,0
S,616,2464008,521,0,0
S,617,2468012,525,0,0
S,618,2472008,529,0,0
S,619,2476008,532,0,0
S,620,2480008,536,0,0
S,621,2484008,540,0,0
S,622,2488008,544,0,0
S,623,2492008,544,0,0
S,624,2496008,540,0,0
S,625,2500008,535,0,0
S,626,2504012,531,0,0
S,627,2508008,528,0,0
S,628,2512008,524,0,0
S,629,2516008,520,0,0
S,630,2520008,517,0,0
S,631,2524008,517,0,0
S,632,2528008,517,0,0
S,633,2532008,517,0,0
S,634,2536008,517,0,0
S,635,2540008,517,0,0
S,636,2544008,517,0,0
S,637,2548012,517,0,0
S,638,2552008,517,0,0
S,639,2556008,517,0,0
S,640,2560008,510,0,0
S,641,2564008,495,0,0
S,642,2568008,480,0,0
S,643,2572012,480,0,0
S,644,2576008,495,0,0
S,645,2580008,510,0,0
S,646,2584012,517,0,0
S,647,2588008,517,0,0
S,648,2592008,602,0,0
S,649,2596008,687,0,0
S,650,2600008,771,0,0
S,651,2604012,685,0,0
S,652,2608008,601,0,0
S,653,2612008,516,0,0
S,654,2616008,516,0,0
S,655,2620012,500,0,0
S,656,2624008,484,0,0
S,657,2628008,468,0,0
S,658,2632008,451,0,0
S,659,2636008,468,0,0
S,660,2640008,484,0,0
S,661,2644008,500,0,0
S,662,2648008,516,0,0
S,663,2652008,516,0,0
S,664,2656008,516,0,0
S,665,2660008,516,0,0
S,666,2664008,516,0,0
S,667,2668008,516,0,0
S,668,2672008,516,0,0
S,669,2676008,516,0,0
S,670,2680008,516,0,0
S,671,2684008,516,0,0
S,672,2688012,519,0,0
S,673,2692008,525,0,0
S,674,2696008,530,0,0
S,675,2700008,534,0,0
S,676,2704008,539,0,0
S,677,2708008,545,0,0
S,678,2712008,550,0,0
S,679,2716008,555,0,0
S,680,2720008,560,0,0
S,681,2724008,566,0,0
S,682,2728008,571,0,0
S,683,2732008,576,0,0
S,684,2736008,581,0,0
S,685,2740008,586,0,0
S,686,2744008,592,0,0
S,687,2748008,597,0,0
S,688,2752008,597,0,0
S,689,2756008,592,0,0
S,690,2760008,586,0,0
S,691,2764008,581,0,0
S,692,2768008,576,0,0
S,693,2772008,571,0,0
S,694,2776008,566,0,0
S,695,2780008,560,0,0
S,696,2784012,555,0,0
S,697,2788008,550,0,0
S,698,2792008,545,0,0
S,699,2796008,539,0,0
S,700,2800008,533,0,0
S,701,2804008,528,0,0
S,702,2808008,523,0,0
S,703,2812008,517,0,0
S,704,2816012,514,0,0
S,705,2820008,514,0,0
S,706,2824008,514,0,0
S,707,2828008,514,0,0
S,708,2832008,514,0,0
S,709,2836008,514,0,0
S,710,2840008,514,0,0
S,711,2844008,514,0,0
S,712,2848008,514,0,0
S,713,2852008,514,0,0
S,714,2856008,514,0,0
S,715,2860008,514,0,0
S,716,2864008,514,0,0
S,717,2868012,514,0,0
S,718,2872012,514,0,0
S,719,2876008,514,0,0
S,720,2880008,514,0,0
S,721,2884008,514,0,0
S,722,2888008,514,0,0
S,723,2892008,514,0,0
S,724,2896012,514,0,0
S,725,2900008,513,0,0
S,726,2904008,513,0,0
S,727,2908008,513,0,0
S,728,2912008,513,0,0
S,729,2916008,513,0,0
S,730,2920008,513,0,0
S,731,2924008,513,0,0
S,732,2928012,513,0,0
S,733,2932008,513,0,0
S,734,2936008,513,0,0
S,735,2940012,513,0,0
S,736,2944008,516,0,0
S,737,2948008,520,0,0
S,738,2952008,524,0,0
S,739,2956008,527,0,0
S,740,2960008,531,0,0
S,741,2964008,535,0,0
S,742,2968008,539,0,0
S,743,2972008,539,0,0
S,744,2976008,535,0,0
S,745,2980012,531,0,0
S,746,2984008,527,0,0
S,747,2988008,524,0,0
S,748,2992008,520,0,0
S,749,2996008,516,0,0
S,750,3000012,512,0,0
S,751,3004008,512,0,0
S,752,3008008,512,0,0
S,753,3012008,512,0,0
S,754,3016008,512,0,0
S,755,3020008,512,0,0
S,756,3024008,512,0,0
S,757,3028008,512,0,0
S,758,3032008,512,0,0
S,759,3036008,512,0,0
S,760,3040008,505,0,0
S,761,3044008,490,0,0
S,762,3048008,475,0,0
S,763,3052012,475,0,0
S,764,3056008,490,0,0
S,765,3060008,505,0,0
S,766,3064008,512,0,0
S,767,3068012,512,0,0
S,768,3072008,597,0,0
S,769,3076008,682,0,0
S,770,3080008,767,0,0
S,771,3084008,682,0,0
S,772,3088008,597,0,0
S,773,3092008,512,0,0
S,774,3096008,512,0,0
S,775,3100008,495,0,0
S,776,3104008,479,0,0
S,777,3108008,463,0,0
S,778,3112008,446,0,0
S,779,3116008,463,0,0
S,780,3120008,479,0,0
S,781,3124008,495,0,0
S,782,3128008,511,0,0
S,783,3132008,511,0,0
S,784,3136008,511,0,0
S,785,3140008,511,0,0
S,786,3144008,511,0,0
S,787,3148008,511,0,0
S,788,3152008,511,0,0
S,789,3156008,511,0,0
S,790,3160008,511,0,0
S,791,3164008,511,0,0
S,792,3168008,514,0,0
S,793,3172008,520,0,0
S,794,3176008,525,0,0
S,795,3180008,530,0,0
S,796,3184008,535,0,0
S,797,3188008,541,0,0
S,798,3192008,546,0,0
S,799,3196008,551,0,0
S,800,3200008,555,0,0
S,801,3204008,561,0,0
S,802,3208008,566,0,0
S,803,3212008,571,0,0
S,804,3216008,576,0,0
S,805,3220008,581,0,0
S,806,3224008,587,0,0
S,807,3228012,592,0,0
S,808,3232008,592,0,0
S,809,3236008,587,0,0
S,810,3240008,581,0,0
S,811,3244008,576,0,0
S,812,3248012,571,0,0
S,813,3252008,566,0,0
S,814,3256008,561,0,0
S,815,3260008,555,0,0
S,816,3264008,550,0,0
S,817,3268008,545,0,0
S,818,3272008,540,0,0
S,819,3276008,534,0,0
S,820,3280008,529,0,0
S,821,3284012,524,0,0
S,822,3288008,519,0,0
S,823,3292008,513,0,0
S,824,3296012,510,0,0
S,825,3300008,509,0,0
S,826,3304008,509,0,0
S,827,3308008,509,0,0
S,828,3312008,509,0,0
S,829,3316008,509,0,0
S,830,3320008,509,0,0
S,831,3324008,509,0,0
S,832,3328012,509,0,0
S,833,3332008,509,0,0
S,834,3336008,509,0,0
S,835,3340008,509,0,0
S,836,3344008,509,0,0
S,837,3348008,509,0,0
S,838,3352008,509,0,0
S,839,3356008,509,0,0
S,840,3360012,509,0,0
S,841,3364008,509,0,0
S,842,3368008,509,0,0
S,843,3372008,509,0,0
S,844,3376008,509,0,0
S,845,3380008,509,0,0
S,846,3384008,509,0,0
S,847,3388008,509,0,0
S,848,3392012,509,0,0
S,849,3396008,509,0,0
S,850,3400008,508,0,0
S,851,3404012,508,0,0
S,852,3408008,508,0,0
S,853,3412012,508,0,0
S,854,3416008,508,0,0
S,855,3420012,508,0,0
S,856,3424008,511,0,0
S,857,3428008,515,0,0
S,858,3432008,519,0,0
S,859,3436008,522,0,0
S,860,3440008,526,0,0
S,861,3444008,530,0,0
S,862,3448008,534,0,0
S,863,3452008,534,0,0
S,864,3456008,530,0,0
S,865,3460008,526,0,0
S,866,3464012,522,0,0
S,867,3468008,519,0,0
S,868,3472008,515,0,0
S,869,3476008,511,0,0
S,870,3480008,508,0,0
S,871,3484008,508,0,0
S,872,3488008,508,0,0
S,873,3492008,508,0,0
S,874,3496008,508,0,0
S,875,3500008,507,0,0
S,876,3504008,507,0,0
S,877,3508008,507,0,0
S,878,3512012,507,0,0
S,879,3516008,507,0,0
S,880,3520008,500,0,0
S,881,3524008,485,0,0
S,882,3528008,470,0,0
S,883,3532008,470,0,0
S,884,3536008,485,0,0
S,885,3540008,500,0,0
S,886,3544008,507,0,0
S,887,3548008,507,0,0
S,888,3552012,592,0,0
S,889,3556008,677,0,0
S,890,3560008,762,0,0
S,891,3564008,677,0,0
S,892,3568008,592,0,0
S,893,3572008,507,0,0
S,894,3576008,507,0,0
S,895,3580008,491,0,0
S,896,3584012,475,0,0
S,897,3588008,459,0,0
S,898,3592008,442,0,0
S,899,3596008,459,0,0
S,900,3600008,474,0,0
S,901,3604008,490,0,0
S,902,3608012,506,0,0
S,903,3612008,506,0,0
S,904,3616008,506,0,0
S,905,3620008,506,0,0
S,906,3624008,506,0,0
S,907,3628008,506,0,0
S,908,3632008,506,0,0
S,909,3636008,506,0,0
S,910,3640012,506,0,0
S,911,3644008,506,0,0
S,912,3648008,509,0,0
S,913,3652008,515,0,0
S,914,3656012,520,0,0
S,915,3660008,525,0,0
S,916,3664008,530,0,0
S,917,3668008,536,0,0
S,918,3672008,541,0,0
S,919,3676008,546,0,0
S,920,3680008,551,0,0
S,921,3684008,557,0,0
S,922,3688008,562,0,0
S,923,3692008,567,0,0
S,924,3696008,572,0,0
S,925,3700008,576,0,0
S,926,3704008,582,0,0
S,927,3708008,587,0,0
S,928,3712008,587,0,0
S,929,3716008,582,0,0
S,930,3720008,576,0,0
S,931,3724008,571,0,0
S,932,3728008,566,0,0
S,933,3732008,561,0,0
S,934,3736008,556,0,0
S,935,3740012,550,0,0
S,936,3744008,545,0,0
S,937,3748008,540,0,0
S,938,3752012,535,0,0
S,939,3756008,529,0,0
S,940,3760008,524,0,0
S,941,3764008,519,0,0
S,942,3768012,514,0,0
S,943,3772008,508,0,0
S,944,3776008,505,0,0
S,945,3780008,505,0,0
S,946,3784008,505,0,0
S,947,3788008,505,0,0
S,948,3792008,505,0,0
S,949,3796012,505,0,0
S,950,3800008,504,0,0
S,951,3804008,504,0,0
S,952,3808008,504,0,0
S,953,3812008,504,0,0
S,954,3816008,504,0,0
S,955,3820008,504,0,0
S,956,3824008,504,0,0
S,957,3828008,504,0,0
S,958,3832008,504,0,0
S,959,3836008,504,0,0
S,960,3840012,504,0,0
S,961,3844008,504,0,0
S,962,3848008,504,0,0
S,963,3852008,504,0,0
S,964,3856008,504,0,0
S,965,3860008,504,0,0
S,966,3864008,504,0,0
S,967,3868008,504,0,0
S,968,3872008,504,0,0
S,969,3876008,504,0,0
S,970,3880008,504,0,0
S,971,3884008,504,0,0
S,972,3888008,504,0,0
S,973,3892008,504,0,0
S,974,3896008,504,0,0
S,975,3900008,503,0,0
S,976,3904008,506,0,0
S,977,3908008,510,0,0
S,978,3912008,514,0,0
S,979,3916008,517,0,0
S,980,3920008,521,0,0
S,981,3924008,525,0,0
S,982,3928008,529,0,0
S,983,3932008,529,0,0
S,984,3936012,525,0,0
S,985,3940008,521,0,0
S,986,3944008,517,0,0
S,987,3948008,514,0,0
S,988,3952008,510,0,0
S,989,3956008,506,0,0
S,990,3960008,503,0,0
S,991,3964008,503,0,0
S,992,3968008,503,0,0
S,993,3972008,503,0,0
S,994,3976012,503,0,0
S,995,3980008,503,0,0
S,996,3984008,503,0,0
S,997,3988012,503,0,0
S,998,3992008,503,0,0
S,999,3996008,503,0,0
S,1000,4000008,495,0,0
S,1001,4004008,480,0,0
S,1002,4008008,465,0,0
S,1003,4012008,465,0,0
S,1004,4016012,480,0,0
S,1005,4020008,495,0,0
S,1006,4024008,502,0,0
S,1007,4028008,502,0,0
S,1008,4032008,587,0,0
S,1009,4036008,672,0,0
S,1010,4040008,757,0,0
S,1011,4044008,672,0,0
S,1012,4048008,587,0,0
S,1013,4052008,502,0,0
S,1014,4056008,502,0,0
S,1015,4060008,486,0,0
S,1016,4064012,470,0,0
S,1017,4068008,454,0,0
S,1018,4072008,437,0,0
S,1019,4076008,454,0,0
S,1020,4080008,470,0,0
S,1021,4084008,486,0,0
S,1022,4088008,502,0,0
S,1023,4092008,502,0,0
S,1024,4096008,502,0,0
S,1025,4100008,503,0,0
S,1026,4104008,503,0,0
S,1027,4108008,503,0,0
S,1028,4112008,503,0,0
S,1029,4116008,503,0,0
S,1030,4120008,503,0,0
S,1031,4124008,503,0,0
S,1032,4128008,506,0,0
S,1033,4132008,512,0,0
S,1034,4136008,517,0,0
S,1035,4140012,522,0,0
S,1036,4144008,527,0,0
S,1037,4148008,533,0,0
S,1038,4152008,538,0,0
S,1039,4156008,543,0,0
S,1040,4160008,548,0,0
S,1041,4164008,554,0,0
S,1042,4168008,559,0,0
S,1043,4172008,564,0,0
S,1044,4176008,569,0,0
S,1045,4180008,574,0,0
S,1046,4184008,580,0,0
S,1047,4188008,585,0,0
S,1048,4192008,585,0,0
S,1049,4196008,580,0,0
S,1050,4200008,575,0,0
S,1051,4204008,570,0,0
S,1052,4208008,565,0,0
S,1053,4212008,560,0,0
S,1054,4216008,555,0,0
S,1055,4220012,549,0,0
S,1056,4224008,544,0,0
S,1057,4228008,539,0,0
S,1058,4232008,534,0,0
S,1059,4236008,528,0,0
S,1060,4240008,523,0,0
S,1061,4244008,518,0,0
S,1062,4248008,513,0,0
S,1063,4252008,507,0,0
S,1064,4256008,504,0,0
S,1065,4260008,504,0,0
S,1066,4264008,504,0,0
S,1067,4268008,504,0,0
S,1068,4272008,504,0,0
S,1069,4276008,504,0,0
S,1070,4280008,504,0,0
S,1071,4284008,504,0,0
S,1072,4288008,504,0,0
S,1073,4292008,504,0,0
S,1074,4296008,504,0,0
S,1075,4300008,505,0,0
S,1076,4304008,505,0,0
S,1077,4308008,505,0,0
S,1078,4312008,505,0,0
S,1079,4316008,505,0,0
S,1080,4320008,505,0,0
S,1081,4324008,505,0,0
S,1082,4328008,505,0,0
S,1083,4332008,505,0,0
S,1084,4336008,505,0,0
S,1085,4340008,505,0,0
S,1086,4344008,505,0,0
S,1087,4348008,505,0,0
S,1088,4352008,505,0,0
S,1089,4356008,505,0,0
S,1090,4360008,505,0,0
S,1091,4364008,505,0,0
S,1092,4368012,505,0,0
S,1093,4372008,505,0,0
S,1094,4376008,505,0,0
S,1095,4380008,505,0,0
S,1096,4384008,508,0,0
S,1097,4388008,512,0,0
S,1098,4392008,516,0,0
S,1099,4396008,519,0,0
S,1100,4400012,524,0,0
S,1101,4404008,528,0,0
S,1102,4408008,532,0,0
S,1103,4412008,532,0,0
S,1104,4416008,528,0,0
S,1105,4420008,524,0,0
S,1106,4424008,520,0,0
S,1107,4428008,517,0,0
S,1108,4432008,513,0,0
S,1109,4436008,509,0,0
S,1110,4440008,506,0,0
S,1111,4444008,506,0,0
S,1112,4448008,506,0,0
S,1113,4452008,506,0,0
S,1114,4456008,506,0,0
S,1115,4460008,506,0,0
S,1116,4464008,506,0,0
S,1117,4468008,506,0,0
S,1118,4472012,506,0,0
S,1119,4476008,506,0,0
S,1120,4480008,499,0,0
S,1121,4484008,484,0,0
S,1122,4488008,469,0,0
S,1123,4492008,469,0,0
S,1124,4496008,484,0,0
S,1125,4500008,500,0,0
S,1126,4504008,507,0,0
S,1127,4508008,507,0,0
S,1128,4512008,592,0,0
S,1129,4516008,677,0,0
S,1130,4520008,762,0,0
S,1131,4524008,677,0,0
S,1132,4528008,592,0,0
S,1133,4532008,507,0,0
S,1134,4536008,507,0,0
S,1135,4540008,491,0,0
S,1136,4544012,475,0,0
S,1137,4548008,459,0,0
S,1138,4552008,442,0,0
S,1139,4556008,459,0,0
S,1140,4560008,475,0,0
S,1141,4564008,491,0,0
S,1142,4568008,507,0,0
S,1143,4572008,507,0,0
S,1144,4576008,507,0,0
S,1145,4580008,507,0,0
S,1146,4584008,507,0,0
S,1147,4588008,507,0,0
S,1148,4592008,507,0,0
S,1149,4596008,507,0,0
S,1150,4600008,508,0,0
S,1151,4604008,508,0,0
S,1152,4608012,511,0,0
S,1153,4612008,517,0,0
S,1154,4616008,522,0,0
S,1155,4620008,527,0,0
S,1156,4624008,532,0,0
S,1157,4628008,538,0,0
S,1158,4632008,543,0,0
S,1159,4636008,548,0,0
S,1160,4640008,553,0,0
S,1161,4644008,559,0,0
S,1162,4648008,564,0,0
S,1163,4652008,569,0,0
S,1164,4656008,574,0,0
S,1165,4660008,579,0,0
S,1166,4664008,585,0,0
S,1167,4668008,590,0,0
S,1168,4672012,590,0,0
S,1169,4676012,585,0,0
S,1170,4680008,579,0,0
S,1171,4684012,574,0,0
S,1172,4688012,569,0,0
S,1173,4692012,564,0,0
S,1174,4696008,559,0,0
S,1175,4700008,554,0,0
S,1176,4704008,549,0,0
S,1177,4708008,544,0,0
S,1178,4712008,539,0,0
S,1179,4716008,533,0,0
S,1180,4720008,528,0,0
S,1181,4724008,523,0,0
S,1182,4728008,518,0,0
S,1183,4732008,512,0,0
S,1184,4736012,509,0,0
S,1185,4740008,509,0,0
S,1186,4744008,509,0,0
S,1187,4748008,509,0,0
S,1188,4752008,509,0,0
S,1189,4756008,509,0,0
S,1190,4760008,509,0,0
S,1191,4764008,509,0,0
S,1192,4768008,509,0,0
S,1193,4772008,509,0,0
S,1194,4776008,509,0,0
S,1195,4780012,509,0,0
S,1196,4784008,509,0,0
S,1197,4788008,509,0,0
S,1198,4792008,509,0,0
S,1199,4796008,509,0,0
S,1200,4800008,510,0,0
S,1201,4804008,510,0,0
S,1202,4808008,510,0,0
S,1203,4812008,510,0,0
S,1204,4816008,510,0,0
S,1205,4820008,510,0,0
S,1206,4824008,510,0,0
S,1207,4828008,510,0,0
S,1208,4832008,510,0,0
S,1209,4836012,510,0,0
S,1210,4840008,510,0,0
S,1211,4844008,510,0,0
S,1212,4848008,510,0,0
S,1213,4852012,510,0,0
S,1214,4856008,510,0,0
S,1215,4860012,510,0,0
S,1216,4864008,513,0,0
S,1217,4868008,517,0,0
S,1218,4872008,521,0,0
S,1219,4876008,524,0,0
S,1220,4880008,528,0,0
S,1221,4884008,532,0,0
S,1222,4888008,536,0,0
S,1223,4892008,536,0,0
S,1224,4896008,532,0,0
S,1225,4900008,529,0,0
S,1226,4904008,525,0,0
S,1227,4908008,522,0,0
S,1228,4912008,518,0,0
S,1229,4916008,514,0,0
S,1230,4920008,511,0,0
S,1231,4924008,511,0,0
S,1232,4928012,511,0,0
S,1233,4932008,511,0,0
S,1234,4936008,511,0,0
S,1235,4940008,511,0,0
S,1236,4944008,511,0,0
S,1237,4948008,511,0,0
S,1238,4952008,511,0,0
S,1239,4956008,511,0,0
S,1240,4960008,504,0,0
S,1241,4964008,489,0,0
S,1242,4968012,474,0,0
S,1243,4972008,474,0,0
S,1244,4976008,489,0,0
S,1245,4980008,504,0,0
S,1246,4984008,511,0,0
S,1247,4988008,511,0,0
S,1248,4992008,596,0,0
S,1249,4996012,681,0,0
S,1250,5000008,767,0,0
S,1251,5004008,682,0,0
S,1252,5008008,597,0,0
S,1253,5012008,512,0,0
S,1254,5016008,512,0,0
S,1255,5020008,496,0,0
S,1256,5024008,480,0,0
S,1257,5028008,464,0,0
S,1258,5032008,447,0,0
S,1259,5036008,464,0,0
S,1260,5040008,480,0,0
S,1261,5044008,496,0,0
S,1262,5048008,512,0,0
S,1263,5052008,512,0,0
S,1264,5056008,512,0,0
S,1265,5060008,512,0,0
S,1266,5064008,512,0,0
S,1267,5068008,512,0,0
S,1268,5072012,512,0,0
S,1269,5076008,512,0,0
S,1270,5080008,512,0,0
S,1271,5084008,512,0,0
S,1272,5088012,515,0,0
S,1273,5092008,521,0,0
S,1274,5096008,526,0,0
S,1275,5100012,532,0,0
S,1276,5104008,537,0,0
S,1277,5108008,543,0,0
S,1278,5112008,548,0,0
S,1279,5116008,553,0,0
S,1280,5120012,558,0,0
S,1281,5124008,564,0,0
S,1282,5128008,569,0,0
S,1283,5132008,574,0,0
S,1284,5136008,579,0,0
S,1285,5140008,584,0,0
S,1286,5144008,590,0,0
S,1287,5148008,595,0,0
S,1288,5152008,595,0,0
S,1289,5156008,590,0,0
S,1290,5160008,584,0,0
S,1291,5164008,579,0,0
S,1292,5168008,574,0,0
S,1293,5172008,569,0,0
S,1294,5176008,564,0,0
S,1295,5180008,558,0,0
S,1296,5184008,553,0,0
S,1297,5188008,548,0,0
S,1298,5192008,543,0,0
S,1299,5196008,537,0,0
S,1300,5200008,533,0,0
S,1301,5204008,528,0,0
S,1302,5208008,523,0,0
S,1303,5212008,517,0,0
S,1304,5216008,514,0,0
S,1305,5220008,514,0,0
S,1306,5224008,514,0,0
S,1307,5228008,514,0,0
S,1308,5232008,514,0,0
S,1309,5236008,514,0,0
S,1310,5240008,514,0,0
S,1311,5244008,514,0,0
S,1312,5248008,514,0,0
S,1313,5252008,514,0,0
S,1314,5256008,514,0,0
S,1315,5260012,514,0,0
S,1316,5264008,514,0,0
S,1317,5268008,514,0,0
S,1318,5272008,514,0,0
S,1319,5276008,514,0,0
S,1320,5280008,514,0,0
S,1321,5284008,514,0,0
S,1322,5288008,514,0,0
S,1323,5292008,514,0,0
S,1324,5296008,514,0,0
S,1325,5300008,515,0,0
S,1326,5304012,515,0,0
S,1327,5308008,515,0,0
S,1328,5312008,515,0,0
S,1329,5316008,515,0,0
S,1330,5320008,515,0,0
S,1331,5324008,515,0,0
S,1332,5328012,515,0,0
S,1333,5332008,515,0,0
S,1334,5336012,515,0,0
S,1335,5340008,515,0,0
S,1336,5344008,518,0,0
S,1337,5348008,522,0,0
S,1338,5352008,526,0,0
S,1339,5356008,529,0,0
S,1340,5360008,533,0,0
S,1341,5364008,537,0,0
S,1342,5368008,541,0,0
S,1343,5372008,541,0,0
S,1344,5376008,537,0,0
S,1345,5380012,533,0,0
S,1346,5384008,529,0,0
S,1347,5388008,526,0,0
S,1348,5392008,522,0,0
S,1349,5396008,518,0,0
S,1350,5400008,516,0,0
S,1351,5404008,516,0,0
S,1352,5408008,516,0,0
S,1353,5412008,516,0,0
S,1354,5416008,516,0,0
S,1355,5420008,516,0,0
S,1356,5424008,516,0,0
S,1357,5428008,516,0,0
S,1358,5432008,516,0,0
S,1359,5436008,516,0,0
S,1360,5440008,509,0,0
S,1361,5444008,494,0,0
S,1362,5448012,479,0,0
S,1363,5452008,479,0,0
S,1364,5456008,494,0,0
S,1365,5460008,509,0,0
S,1366,5464008,516,0,0
S,1367,5468008,516,0,0
S,1368,5472008,601,0,0
S,1369,5476008,686,0,0
S,1370,5480008,771,0,0
S,1371,5484008,686,0,0
S,1372,5488008,601,0,0
S,1373,5492008,516,0,0
S,1374,5496008,516,0,0
S,1375,5500008,501,0,0
S,1376,5504008,485,0,0
S,1377,5508008,469,0,0
S,1378,5512008,452,0,0
S,1379,5516012,469,0,0
S,1380,5520012,485,0,0
S,1381,5524008,501,0,0
S,1382,5528008,517,0,0
S,1383,5532008,517,0,0
S,1384,5536008,517,0,0
S,1385,5540008,517,0,0
S,1386,5544008,517,0,0
S,1387,5548012,517,0,0
S,1388,5552008,517,0,0
S,1389,5556008,517,0,0
S,1390,5560008,517,0,0
S,1391,5564008,517,0,0
S,1392,5568008,520,0,0
S,1393,5572012,526,0,0
S,1394,5576008,531,0,0
S,1395,5580008,536,0,0
S,1396,5584008,541,0,0
S,1397,5588008,547,0,0
S,1398,5592008,552,0,0
S,1399,5596008,557,0,0
S,1400,5600008,563,0,0
S,1401,5604008,569,0,0
S,1402,5608008,574,0,0
S,1403,5612008,579,0,0
S,1404,5616012,584,0,0
S,1405,5620008,589,0,0
S,1406,5624008,595,0,0
S,1407,5628008,600,0,0
S,1408,5632008,600,0,0
S,1409,5636008,595,0,0
S,1410,5640008,589,0,0
S,1411,5644008,584,0,0
S,1412,5648008,579,0,0
S,1413,5652008,574,0,0
S,1414,5656008,569,0,0
S,1415,5660008,563,0,0
S,1416,5664012,558,0,0
S,1417,5668008,553,0,0
S,1418,5672008,548,0,0
S,1419,5676008,542,0,0
S,1420,5680008,537,0,0
S,1421,5684008,532,0,0
S,1422,5688008,527,0,0
S,1423,5692008,521,0,0
S,1424,5696008,518,0,0
S,1425,5700008,519,0,0
S,1426,5704008,519,0,0
S,1427,5708008,519,0,0
S,1428,5712008,519,0,0
S,1429,5716012,519,0,0
S,1430,5720008,519,0,0
S,1431,5724008,519,0,0
S,1432,5728008,519,0,0
S,1433,5732008,519,0,0
S,1434,5736008,519,0,0
S,1435,5740008,519,0,0
S,1436,5744008,519,0,0
S,1437,5748008,519,0,0
S,1438,5752008,519,0,0
S,1439,5756008,519,0,0
S,1440,5760008,519,0,0
S,1441,5764008,519,0,0
S,1442,5768008,519,0,0
S,1443,5772008,519,0,0
S,1444,5776008,519,0,0
S,1445,5780008,519,0,0
S,1446,5784012,519,0,0
S,1447,5788008,519,0,0
S,1448,5792008,519,0,0
S,1449,5796012,519,0,0
S,1450,5800008,520,0,0
S,1451,5804008,520,0,0
S,1452,5808008,520,0,0
S,1453,5812008,520,0,0
S,1454,5816012,520,0,0
S,1455,5820008,520,0,0
S,1456,5824008,523,0,0
S,1457,5828008,527,0,0
S,1458,5832008,531,0,0
S,1459,5836008,534,0,0
S,1460,5840008,538,0,0
S,1461,5844008,542,0,0
S,1462,5848008,546,0,0
S,1463,5852008,546,0,0
S,1464,5856012,542,0,0
S,1465,5860008,538,0,0
S,1466,5864008,534,0,0
S,1467,5868008,531,0,0
S,1468,5872008,527,0,0
S,1469,5876008,523,0,0
S,1470,5880008,520,0,0
S,1471,5884008,520,0,0
S,1472,5888008,520,0,0
S,1473,5892008,520,0,0
S,1474,5896008,520,0,0
S,1475,5900008,521,0,0
S,1476,5904008,521,0,0
S,1477,5908008,521,0,0
S,1478,5912008,521,0,0
S,1479,5916008,521,0,0
S,1480,5920008,514,0,0
S,1481,5924008,499,0,0
S,1482,5928008,484,0,0
S,1483,5932008,484,0,0
S,1484,5936008,499,0,0
S,1485,5940008,514,0,0
S,1486,5944008,521,0,0
S,1487,5948008,521,0,0
S,1488,5952008,606,0,0
S,1489,5956008,691,0,0
S,1490,5960008,776,0,0
S,1491,5964008,691,0,0
S,1492,5968008,606,0,0
S,1493,5972008,521,0,0
S,1494,5976008,521,0,0
S,1495,5980008,505,0,0
S,1496,5984008,489,0,0
S,1497,5988008,473,0,0
S,1498,5992008,456,0,0
S,1499,5996008,473,0,0
S,1500,6000008,490,0,0
S,1501,6004008,506,0,0
S,1502,6008008,522,0,0
S,1503,6012008,522,0,0
S,1504,6016008,522,0,0
S,1505,6020008,522,0,0
S,1506,6024008,522,0,0
S,1507,6028008,522,0,0
S,1508,6032008,522,0,0
S,1509,6036008,522,0,0
S,1510,6040008,522,0,0
S,1511,6044008,522,0,0
S,1512,6048012,525,0,0
S,1513,6052008,531,0,0
S,1514,6056008,536,0,0
S,1515,6060008,541,0,0
S,1516,6064008,546,0,0
S,1517,6068008,552,0,0
S,1518,6072008,557,0,0
S,1519,6076008,562,0,0
S,1520,6080008,567,0,0
S,1521,6084008,573,0,0
S,1522,6088008,578,0,0
S,1523,6092008,583,0,0
S,1524,6096008,588,0,0
S,1525,6100008,592,0,0
S,1526,6104008,598,0,0
S,1527,6108012,603,0,0
S,1528,6112008,603,0,0
S,1529,6116008,598,0,0
S,1530,6120008,592,0,0
S,1531,6124008,587,0,0
S,1532,6128008,582,0,0
S,1533,6132008,577,0,0
S,1534,6136008,572,0,0
S,1535,6140008,566,0,0
S,1536,6144008,561,0,0
S,1537,6148008,556,0,0
S,1538,6152008,551,0,0
S,1539,6156012,545,0,0
S,1540,6160008,540,0,0
S,1541,6164008,535,0,0
S,1542,6168008,530,0,0
S,1543,6172008,524,0,0
S,1544,6176008,521,0,0
S,1545,6180008,521,0,0
S,1546,6184008,521,0,0
S,1547,6188008,521,0,0
S,1548,6192008,521,0,0
S,1549,6196008,521,0,0
S,1550,6200008,520,0,0
S,1551,6204008,520,0,0
S,1552,6208008,520,0,0
S,1553,6212008,520,0,0
S,1554,6216008,520,0,0
S,1555,6220008,520,0,0
S,1556,6224008,520,0,0
S,1557,6228008,520,0,0
S,1558,6232008,520,0,0
S,1559,6236008,520,0,0
S,1560,6240008,520,0,0
S,1561,6244008,520,0,0
S,1562,6248008,520,0,0
S,1563,6252012,520,0,0
S,1564,6256008,520,0,0
S,1565,6260008,520,0,0
S,1566,6264008,520,0,0
S,1567,6268008,520,0,0
S,1568,6272008,520,0,0
S,1569,6276012,520,0,0
S,1570,6280008,520,0,0
S,1571,6284008,520,0,0
S,1572,6288012,520,0,0
S,1573,6292008,520,0,0
S,1574,6296008,520,0,0
S,1575,6300008,519,0,0
S,1576,6304008,522,0,0
S,1577,6308008,526,0,0
S,1578,6312008,530,0,0
S,1579,6316008,533,0,0
S,1580,6320012,537,0,0
S,1581,6324008,541,0,0
S,1582,6328008,545,0,0
S,1583,6332012,545,0,0
S,1584,6336008,541,0,0
S,1585,6340008,537,0,0
S,1586,6344008,533,0,0
S,1587,6348012,530,0,0
S,1588,6352008,526,0,0
S,1589,6356008,522,0,0
S,1590,6360008,519,0,0
S,1591,6364008,519,0,0
S,1592,6368008,519,0,0
S,1593,6372012,519,0,0
S,1594,6376008,519,0,0
S,1595,6380008,519,0,0
S,1596,6384012,519,0,0
S,1597,6388008,519,0,0
S,1598,6392008,519,0,0
S,1599,6396008,519,0,0
S,1600,6400008,511,0,0
S,1601,6404012,496,0,0
S,1602,6408008,481,0,0
S,1603,6412008,481,0,0
S,1604,6416008,496,0,0
S,1605,6420008,511,0,0
S,1606,6424008,518,0,0
S,1607,6428008,518,0,0
S,1608,6432008,603,0,0
S,1609,6436008,688,0,0
S,1610,6440008,773,0,0
S,1611,6444008,688,0,0
S,1612,6448012,602,0,0
S,1613,6452008,518,0,0
S,1614,6456008,518,0,0
S,1615,6460008,502,0,0
S,1616,6464008,486,0,0
S,1617,6468008,470,0,0
S,1618,6472008,453,0,0
S,1619,6476008,470,0,0
S,1620,6480012,486,0,0
S,1621,6484012,502,0,0
S,1622,6488012,518,0,0
S,1623,6492008,518,0,0
S,1624,6496008,518,0,0
S,1625,6500012,517,0,0
S,1626,6504008,517,0,0
S,1627,6508012,517,0,0
S,1628,6512012,517,0,0
S,1629,6516008,517,0,0
S,1630,6520008,517,0,0
S,1631,6524008,517,0,0
S,1632,6528008,520,0,0
S,1633,6532012,526,0,0
S,1634,6536008,531,0,0
S,1635,6540008,536,0,0
S,1636,6544008,541,0,0
S,1637,6548008,547,0,0
S,1638,6552008,552,0,0
S,1639,6556012,557,0,0
S,1640,6560008,562,0,0
S,1641,6564008,568,0,0
S,1642,6568012,573,0,0
S,1643,6572008,578,0,0
S,1644,6576008,583,0,0
S,1645,6580008,588,0,0
S,1646,6584008,594,0,0
S,1647,6588008,599,0,0
S,1648,6592008,599,0,0
S,1649,6596012,594,0,0
S,1650,6600008,587,0,0
S,1651,6604012,582,0,0
S,1652,6608008,577,0,0
S,1653,6612008,572,0,0
S,1654,6616012,566,0,0
S,1655,6620008,561,0,0
S,1656,6624012,556,0,0
S,1657,6628008,551,0,0
S,1658,6632008,546,0,0
S,1659,6636012,540,0,0
S,1660,6640008,535,0,0
S,1661,6644008,530,0,0
S,1662,6648008,525,0,0
S,1663,6652008,519,0,0
S,1664,6656008,516,0,0
S,1665,6660008,516,0,0
S,1666,6664008,516,0,0
S,1667,6668008,516,0,0
S,1668,6672008,516,0,0
S,1669,6676008,516,0,0
S,1670,6680008,516,0,0
S,1671,6684012,516,0,0
S,1672,6688008,516,0,0
S,1673,6692012,516,0,0
S,1674,6696008,516,0,0
S,1675,6700012,515,0,0
S,1676,6704008,515,0,0
S,1677,6708008,515,0,0
S,1678,6712008,515,0,0
S,1679,6716008,515,0,0
S,1680,6720008,515,0,0
S,1681,6724008,515,0,0
S,1682,6728008,515,0,0
S,1683,6732008,515,0,0
S,1684,6736008,515,0,0
S,1685,6740008,515,0,0
S,1686,6744008,515,0,0
S,1687,6748008,515,0,0
S,1688,6752008,515,0,0
S,1689,6756008,515,0,0
S,1690,6760008,515,0,0
S,1691,6764008,515,0,0
S,1692,6768008,515,0,0
S,1693,6772008,515,0,0
S,1694,6776008,515,0,0
S,1695,6780008,515,0,0
S,1696,6784012,518,0,0
S,1697,6788008,522,0,0
S,1698,6792008,526,0,0
S,1699,6796008,529,0,0
S,1700,6800008,532,0,0
S,1701,6804008,536,0,0
S,1702,6808008,540,0,0
S,1703,6812008,540,0,0
S,1704,6816008,536,0,0
S,1705,6820008,532,0,0
S,1706,6824008,528,0,0
S,1707,6828008,525,0,0
S,1708,6832008,521,0,0
S,1709,6836008,517,0,0
S,1710,6840008,514,0,0
S,1711,6844008,514,0,0
S,1712,6848008,514,0,0
S,1713,6852008,514,0,0
S,1714,6856008,514,0,0
S,1715,6860008,514,0,0
S,1716,6864008,514,0,0
S,1717,6868008,514,0,0
S,1718,6872008,514,0,0
S,1719,6876012,514,0,0
S,1720,6880008,507,0,0
S,1721,6884008,492,0,0
S,1722,6888008,477,0,0
S,1723,6892008,477,0,0
S,1724,6896008,492,0,0
S,1725,6900012,506,0,0
S,1726,6904008,513,0,0
S,1727,6908008,513,0,0
S,1728,6912008,598,0,0
S,1729,6916008,683,0,0
S,1730,6920008,768,0,0
S,1731,6924008,683,0,0
S,1732,6928012,597,0,0
S,1733,6932008,513,0,0
S,1734,6936008,513,0,0
S,1735,6940008,497,0,0
S,1736,6944008,481,0,0
S,1737,6948012,465,0,0
S,1738,6952008,448,0,0
S,1739,6956008,465,0,0
S,1740,6960008,481,0,0
S,1741,6964008,497,0,0
S,1742,6968008,513,0,0
S,1743,6972008,513,0,0
S,1744,6976008,513,0,0
S,1745,6980008,513,0,0
S,1746,6984008,513,0,0
S,1747,6988008,513,0,0
S,1748,6992008,513,0,0
S,1749,6996008,513,0,0
S,1750,7000008,512,0,0
S,1751,7004008,512,0,0
S,1752,7008008,515,0,0
S,1753,7012008,521,0,0
S,1754,7016008,526,0,0
S,1755,7020008,531,0,0
S,1756,7024008,536,0,0
S,1757,7028008,542,0,0
S,1758,7032008,547,0,0
S,1759,7036008,552,0,0
S,1760,7040012,557,0,0
S,1761,7044008,563,0,0
S,1762,7048008,568,0,0
S,1763,7052008,573,0,0
S,1764,7056008,578,0,0
S,1765,7060008,583,0,0
S,1766,7064008,589,0,0
S,1767,7068008,594,0,0
S,1768,7072012,594,0,0
S,1769,7076008,589,0,0
S,1770,7080008,583,0,0
S,1771,7084008,578,0,0
S,1772,7088008,573,0,0
S,1773,7092012,568,0,0
S,1774,7096008,563,0,0
S,1775,7100008,556,0,0
S,1776,7104008,551,0,0
S,1777,7108008,546,0,0
S,1778,7112008,541,0,0
S,1779,7116008,535,0,0
S,1780,7120008,530,0,0
S,1781,7124008,525,0,0
S,1782,7128012,520,0,0
S,1783,7132008,514,0,0
S,1784,7136008,511,0,0
S,1785,7140008,511,0,0
S,1786,7144008,511,0,0
S,1787,7148008,511,0,0
S,1788,7152008,511,0,0
S,1789,7156008,511,0,0
S,1790,7160008,511,0,0
S,1791,7164008,511,0,0
S,1792,7168008,511,0,0
S,1793,7172008,511,0,0
S,1794,7176008,511,0,0
S,1795,7180008,511,0,0
S,1796,7184012,511,0,0
S,1797,7188012,511,0,0
S,1798,7192008,511,0,0
S,1799,7196008,511,0,0
S,1800,7200008,510,0,0
S,1801,7204008,510,0,0
S,1802,7208008,510,0,0
S,1803,7212008,510,0,0
S,1804,7216008,510,0,0
S,1805,7220008,510,0,0
S,1806,7224008,510,0,0
S,1807,7228008,510,0,0
S,1808,7232008,510,0,0
S,1809,7236008,510,0,0
S,1810,7240008,510,0,0
S,1811,7244008,510,0,0
S,1812,7248008,510,0,0
S,1813,7252008,510,0,0
S,1814,7256008,510,0,0
S,1815,7260008,510,0,0
S,1816,7264008,513,0,0
S,1817,7268012,517,0,0
S,1818,7272008,521,0,0
S,1819,7276008,524,0,0
S,1820,7280008,528,0,0
S,1821,7284008,532,0,0
S,1822,7288008,536,0,0
S,1823,7292008,536,0,0
S,1824,7296008,532,0,0
S,1825,7300008,527,0,0
S,1826,7304008,523,0,0
S,1827,7308008,520,0,0
S,1828,7312008,516,0,0
S,1829,7316008,512,0,0
S,1830,7320008,509,0,0
S,1831,7324008,509,0,0
S,1832,7328008,509,0,0
S,1833,7332008,509,0,0
S,1834,7336008,509,0,0
S,1835,7340008,509,0,0
S,1836,7344008,509,0,0
S,1837,7348008,509,0,0
S,1838,7352012,509,0,0
S,1839,7356008,509,0,0
S,1840,7360008,502,0,0
S,1841,7364008,487,0,0
S,1842,7368008,472,0,0
S,1843,7372008,472,0,0
S,1844,7376008,487,0,0
S,1845,7380008,502,0,0
S,1846,7384008,509,0,0
S,1847,7388012,509,0,0
S,1848,7392008,594,0,0
S,1849,7396008,679,0,0
S,1850,7400008,763,0,0
S,1851,7404008,678,0,0
S,1852,7408008,593,0,0
S,1853,7412012,508,0,0
S,1854,7416012,508,0,0
S,1855,7420008,492,0,0
S,1856,7424008,476,0,0
S,1857,7428008,460,0,0
S,1858,7432008,443,0,0
S,1859,7436008,460,0,0
S,1860,7440012,476,0,0
S,1861,7444008,492,0,0
S,1862,7448008,508,0,0
S,1863,7452008,508,0,0
S,1864,7456008,508,0,0
S,1865,7460008,508,0,0
S,1866,7464008,508,0,0
S,1867,7468008,508,0,0
S,1868,7472008,508,0,0
S,1869,7476008,508,0,0
S,1870,7480008,508,0,0
S,1871,7484008,508,0,0
S,1872,7488012,511,0,0
S,1873,7492012,517,0,0
S,1874,7496008,522,0,0
S,1875,7500012,526,0,0
S,1876,7504008,531,0,0
S,1877,7508008,537,0,0
S,1878,7512012,542,0,0
S,1879,7516008,547,0,0
S,1880,7520008,552,0,0
S,1881,7524008,558,0,0
S,1882,7528008,563,0,0
S,1883,7532008,568,0,0
S,1884,7536008,573,0,0
S,1885,7540008,578,0,0
S,1886,7544008,584,0,0
S,1887,7548008,589,0,0
S,1888,7552008,589,0,0
S,1889,7556008,584,0,0
S,1890,7560008,578,0,0
S,1891,7564008,573,0,0
S,1892,7568008,568,0,0
S,1893,7572008,563,0,0
S,1894,7576012,557,0,0
S,1895,7580008,552,0,0
S,1896,7584008,547,0,0
S,1897,7588008,542,0,0
S,1898,7592008,537,0,0
S,1899,7596012,531,0,0
S,1900,7600008,525,0,0
S,1901,7604008,520,0,0
S,1902,7608008,515,0,0
S,1903,7612008,509,0,0
S,1904,7616008,506,0,0
S,1905,7620008,506,0,0
S,1906,7624008,506,0,0
S,1907,7628008,506,0,0
S,1908,7632008,506,0,0
S,1909,7636008,506,0,0
S,1910,7640008,506,0,0
S,1911,7644008,506,0,0
S,1912,7648008,506,0,0
S,1913,7652008,506,0,0
S,1914,7656008,506,0,0
S,1915,7660012,506,0,0
S,1916,7664008,506,0,0
S,1917,7668008,506,0,0
S,1918,7672008,506,0,0
S,1919,7676008,506,0,0
S,1920,7680008,506,0,0
S,1921,7684008,506,0,0
S,1922,7688008,506,0,0
S,1923,7692008,506,0,0
S,1924,7696008,506,0,0
S,1925,7700008,505,0,0
S,1926,7704008,505,0,0
S,1927,7708008,505,0,0
S,1928,7712008,505,0,0
S,1929,7716008,505,0,0
S,1930,7720008,505,0,0
S,1931,7724008,505,0,0
S,1932,7728008,505,0,0
S,1933,7732012,505,0,0
S,1934,7736008,505,0,0
S,1935,7740008,505,0,0
S,1936,7744008,508,0,0
S,1937,7748008,512,0,0
S,1938,7752008,516,0,0
S,1939,7756008,519,0,0
S,1940,7760008,523,0,0
S,1941,7764008,527,0,0
S,1942,7768008,531,0,0
S,1943,7772008,531,0,0
S,1944,7776008,527,0,0
S,1945,7780008,523,0,0
S,1946,7784008,519,0,0
S,1947,7788008,516,0,0
S,1948,7792008,512,0,0
S,1949,7796008,508,0,0
S,1950,7800008,504,0,0
S,1951,7804008,504,0,0
S,1952,7808008,504,0,0
S,1953,7812008,504,0,0
S,1954,7816008,504,0,0
S,1955,7820008,504,0,0
S,1956,7824008,504,0,0
S,1957,7828008,504,0,0
S,1958,7832012,504,0,0
S,1959,7836008,504,0,0
S,1960,7840012,497,0,0
S,1961,7844008,482,0,0
S,1962,7848008,467,0,0
S,1963,7852008,467,0,0
S,1964,7856012,482,0,0
S,1965,7860008,497,0,0
S,1966,7864008,504,0,0
S,1967,7868008,504,0,0
S,1968,7872008,589,0,0
S,1969,7876008,674,0,0
S,1970,7880008,759,0,0
S,1971,7884012,673,0,0
S,1972,7888008,589,0,0
S,1973,7892008,504,0,0
S,1974,7896008,504,0,0
S,1975,7900008,487,0,0
S,1976,7904008,471,0,0
S,1977,7908008,455,0,0
S,1978,7912008,438,0,0
S,1979,7916008,455,0,0
S,1980,7920008,471,0,0
S,1981,7924008,487,0,0
S,1982,7928008,503,0,0
S,1983,7932008,503,0,0
S,1984,7936008,503,0,0
S,1985,7940008,503,0,0
S,1986,7944008,503,0,0
S,1987,7948008,503,0,0
S,1988,7952008,503,0,0
S,1989,7956008,503,0,0
S,1990,7960008,503,0,0
S,1991,7964008,503,0,0
S,1992,7968008,506,0,0
S,1993,7972008,512,0,0
S,1994,7976008,517,0,0
S,1995,7980008,522,0,0
S,1996,7984008,527,0,0
S,1997,7988008,533,0,0
S,1998,7992008,538,0,0
S,1999,7996008,543,0,0
S,2000,8000008,547,0,0
S,2001,8004012,553,0,0
S,2002,8008008,558,0,0
S,2003,8012008,563,0,0
S,2004,8016008,568,0,0
S,2005,8020008,573,0,0
S,2006,8024012,579,0,0
S,2007,8028008,584,0,0
S,2008,8032012,584,0,0
S,2009,8036008,579,0,0
S,2010,8040008,573,0,0
S,2011,8044008,568,0,0
S,2012,8048008,563,0,0
S,2013,8052008,558,0,0
S,2014,8056008,553,0,0
S,2015,8060008,547,0,0
S,2016,8064008,542,0,0
S,2017,8068012,537,0,0
S,2018,8072008,532,0,0
S,2019,8076008,526,0,0
S,2020,8080008,521,0,0
S,2021,8084008,516,0,0
S,2022,8088008,511,0,0
S,2023,8092008,505,0,0
S,2024,8096008,502,0,0
S,2025,8100008,503,0,0
S,2026,8104008,503,0,0
S,2027,8108008,503,0,0
S,2028,8112008,503,0,0
S,2029,8116008,503,0,0
S,2030,8120008,503,0,0
S,2031,8124008,503,0,0
S,2032,8128008,503,0,0
S,2033,8132008,503,0,0
S,2034,8136008,503,0,0
S,2035,8140008,503,0,0
S,2036,8144008,503,0,0
S,2037,8148008,503,0,0
S,2038,8152008,503,0,0
S,2039,8156008,503,0,0
S,2040,8160008,503,0,0
S,2041,8164008,503,0,0
S,2042,8168008,503,0,0
S,2043,8172008,503,0,0
S,2044,8176008,503,0,0
S,2045,8180012,503,0,0
S,2046,8184008,503,0,0
S,2047,8188008,503,0,0
S,2048,8192012,503,0,0
S,2049,8196008,503,0,0
S,2050,8200008,504,0,0
S,2051,8204008,504,0,0
S,2052,8208008,504,0,0
S,2053,8212008,504,0,0
S,2054,8216012,504,0,0
S,2055,8220008,504,0,0
S,2056,8224008,507,0,0
S,2057,8228008,511,0,0
S,2058,8232008,515,0,0
S,2059,8236008,518,0,0
S,2060,8240008,522,0,0
S,2061,8244008,526,0,0
S,2062,8248008,530,0,0
S,2063,8252008,530,0,0
S,2064,8256008,526,0,0
S,2065,8260008,522,0,0
S,2066,8264008,518,0,0
S,2067,8268008,515,0,0
S,2068,8272012,511,0,0
S,2069,8276008,507,0,0
S,2070,8280008,504,0,0
S,2071,8284012,504,0,0
S,2072,8288008,504,0,0
S,2073,8292008,504,0,0
S,2074,8296012,504,0,0
S,2075,8300008,505,0,0
S,2076,8304008,505,0,0
S,2077,8308012,505,0,0
S,2078,8312008,505,0,0
S,2079,8316008,505,0,0
S,2080,8320008,498,0,0
S,2081,8324008,483,0,0
S,2082,8328008,468,0,0
S,2083,8332012,468,0,0
S,2084,8336008,483,0,0
S,2085,8340008,498,0,0
S,2086,8344012,505,0,0
S,2087,8348008,505,0,0
S,2088,8352008,590,0,0
S,2089,8356008,675,0,0
S,2090,8360008,760,0,0
S,2091,8364008,675,0,0
S,2092,8368008,590,0,0
S,2093,8372008,505,0,0
S,2094,8376008,505,0,0
S,2095,8380008,489,0,0
S,2096,8384008,473,0,0
S,2097,8388008,457,0,0
S,2098,8392008,440,0,0
S,2099,8396008,457,0,0
S,2100,8400008,474,0,0
S,2101,8404012,490,0,0
S,2102,8408008,506,0,0
S,2103,8412012,506,0,0
S,2104,8416012,506,0,0
S,2105,8420008,506,0,0
S,2106,8424008,506,0,0
S,2107,8428012,506,0,0
S,2108,8432008,506,0,0
S,2109,8436008,506,0,0
S,2110,8440008,506,0,0
S,2111,8444008,506,0,0
S,2112,8448008,509,0,0
S,2113,8452008,515,0,0
S,2114,8456008,520,0,0
S,2115,8460008,525,0,0
S,2116,8464008,530,0,0
S,2117,8468008,536,0,0
S,2118,8472008,541,0,0
S,2119,8476008,546,0,0
S,2120,8480012,551,0,0
S,2121,8484008,557,0,0
S,2122,8488008,562,0,0
S,2123,8492008,567,0,0
S,2124,8496008,572,0,0
S,2125,8500008,578,0,0
S,2126,8504008,584,0,0
S,2127,8508008,589,0,0
S,2128,8512008,589,0,0
S,2129,8516008,584,0,0
S,2130,8520008,578,0,0
S,2131,8524008,573,0,0
S,2132,8528008,568,0,0
S,2133,8532008,563,0,0
S,2134,8536008,558,0,0
S,2135,8540008,552,0,0
S,2136,8544008,547,0,0
S,2137,8548008,542,0,0
S,2138,8552008,537,0,0
S,2139,8556008,531,0,0
S,2140,8560008,526,0,0
S,2141,8564008,521,0,0
S,2142,8568012,516,0,0
S,2143,8572012,510,0,0
S,2144,8576008,507,0,0
S,2145,8580008,507,0,0
S,2146,8584008,507,0,0
S,2147,8588008,507,0,0
S,2148,8592008,507,0,0
S,2149,8596012,507,0,0
S,2150,8600008,508,0,0
S,2151,8604012,508,0,0
S,2152,8608012,508,0,0
S,2153,8612008,508,0,0
S,2154,8616008,508,0,0
S,2155,8620008,508,0,0
S,2156,8624008,508,0,0
S,2157,8628008,508,0,0
S,2158,8632008,508,0,0
S,2159,8636008,508,0,0
S,2160,8640008,508,0,0
S,2161,8644008,508,0,0
S,2162,8648008,508,0,0
S,2163,8652008,508,0,0
S,2164,8656008,508,0,0
S,2165,8660008,508,0,0
S,2166,8664008,508,0,0
S,2167,8668008,508,0,0
S,2168,8672008,508,0,0
S,2169,8676008,508,0,0
S,2170,8680008,508,0,0
S,2171,8684008,508,0,0
S,2172,8688008,508,0,0
S,2173,8692008,508,0,0
S,2174,8696008,508,0,0
S,2175,8700008,509,0,0
S,2176,8704008,512,0,0
S,2177,8708008,516,0,0
S,2178,8712008,520,0,0
S,2179,8716008,523,0,0
S,2180,8720008,527,0,0
S,2181,8724008,531,0,0
S,2182,8728012,535,0,0
S,2183,8732008,535,0,0
S,2184,8736008,531,0,0
S,2185,8740008,527,0,0
S,2186,8744008,523,0,0
S,2187,8748008,520,0,0
S,2188,8752008,516,0,0
S,2189,8756008,512,0,0
S,2190,8760012,509,0,0
S,2191,8764008,509,0,0
S,2192,8768008,509,0,0
S,2193,8772008,509,0,0
S,2194,8776008,509,0,0
S,2195,8780008,509,0,0
S,2196,8784008,509,0,0
S,2197,8788008,509,0,0
S,2198,8792008,509,0,0
S,2199,8796008,509,0,0
S,2200,8800008,503,0,0
S,2201,8804008,488,0,0
S,2202,8808008,473,0,0
S,2203,8812008,473,0,0
S,2204,8816008,488,0,0
S,2205,8820008,503,0,0
S,2206,8824008,510,0,0
S,2207,8828008,510,0,0
S,2208,8832008,595,0,0
S,2209,8836012,680,0,0
S,2210,8840008,765,0,0
S,2211,8844008,680,0,0
S,2212,8848012,594,0,0
S,2213,8852008,510,0,0
S,2214,8856008,510,0,0
S,2215,8860008,494,0,0
S,2216,8864008,478,0,0
S,2217,8868008,462,0,0
S,2218,8872008,445,0,0
S,2219,8876008,462,0,0
S,2220,8880008,478,0,0
S,2221,8884008,494,0,0
S,2222,8888008,510,0,0
S,2223,8892008,510,0,0
S,2224,8896012,510,0,0
S,2225,8900008,511,0,0
S,2226,8904008,511,0,0
S,2227,8908012,511,0,0
S,2228,8912008,511,0,0
S,2229,8916008,511,0,0
S,2230,8920008,511,0,0
S,2231,8924008,511,0,0
S,2232,8928008,514,0,0
S,2233,8932012,520,0,0
S,2234,8936008,525,0,0
S,2235,8940012,530,0,0
S,2236,8944008,535,0,0
S,2237,8948008,541,0,0
S,2238,8952008,546,0,0
S,2239,8956008,551,0,0
S,2240,8960008,556,0,0
S,2241,8964008,562,0,0
S,2242,8968008,567,0,0
S,2243,8972008,572,0,0
S,2244,8976008,577,0,0
S,2245,8980008,582,0,0
S,2246,8984008,588,0,0
S,2247,8988008,593,0,0
S,2248,8992008,593,0,0
S,2249,8996008,588,0,0
S,2250,9000008,583,0,0
S,2251,9004008,578,0,0
S,2252,9008008,573,0,0
S,2253,9012008,568,0,0
S,2254,9016008,563,0,0
S,2255,9020008,557,0,0
S,2256,9024008,552,0,0
S,2257,9028008,547,0,0
S,2258,9032008,542,0,0
S,2259,9036008,536,0,0
S,2260,9040008,531,0,0
S,2261,9044008,526,0,0
S,2262,9048008,521,0,0
S,2263,9052008,515,0,0
S,2264,9056008,512,0,0
S,2265,9060008,512,0,0
S,2266,9064008,512,0,0
S,2267,9068012,512,0,0
S,2268,9072008,512,0,0
S,2269,9076008,512,0,0
S,2270,9080008,512,0,0
S,2271,9084008,512,0,0
S,2272,9088008,512,0,0
S,2273,9092008,512,0,0
S,2274,9096008,512,0,0
S,2275,9100008,513,0,0
S,2276,9104008,513,0,0
S,2277,9108012,513,0,0
S,2278,9112008,513,0,0
S,2279,9116008,513,0,0
S,2280,9120008,513,0,0
S,2281,9124008,513,0,0
S,2282,9128008,513,0,0
S,2283,9132008,513,0,0
S,2284,9136008,513,0,0
S,2285,9140008,513,0,0
S,2286,9144012,513,0,0
S,2287,9148012,513,0,0
S,2288,9152012,513,0,0
S,2289,9156008,513,0,0
S,2290,9160008,513,0,0
S,2291,9164008,513,0,0
S,2292,9168008,513,0,0
S,2293,9172012,513,0,0
S,2294,9176008,513,0,0
S,2295,9180008,513,0,0
S,2296,9184008,516,0,0
S,2297,9188008,520,0,0
S,2298,9192012,524,0,0
S,2299,9196008,527,0,0
S,2300,9200008,532,0,0
S,2301,9204008,536,0,0
S,2302,9208008,540,0,0
S,2303,9212008,540,0,0
S,2304,9216008,536,0,0
S,2305,9220012,532,0,0
S,2306,9224008,528,0,0
S,2307,9228008,525,0,0
S,2308,9232008,521,0,0
S,2309,9236008,517,0,0
S,2310,9240008,514,0,0
S,2311,9244008,514,0,0
S,2312,9248008,514,0,0
S,2313,9252008,514,0,0
S,2314,9256008,514,0,0
S,2315,9260008,514,0,0
S,2316,9264008,514,0,0
S,2317,9268008,514,0,0
S,2318,9272008,514,0,0
S,2319,9276008,514,0,0
S,2320,9280008,507,0,0
S,2321,9284008,492,0,0
S,2322,9288008,477,0,0
S,2323,9292008,477,0,0
S,2324,9296008,492,0,0
S,2325,9300008,508,0,0
S,2326,9304008,515,0,0
S,2327,9308008,515,0,0
S,2328,9312008,600,0,0
S,2329,9316008,685,0,0
S,2330,9320008,770,0,0
S,2331,9324008,685,0,0
S,2332,9328008,600,0,0
S,2333,9332008,515,0,0
S,2334,9336008,515,0,0
S,2335,9340008,499,0,0
S,2336,9344008,483,0,0
S,2337,9348008,467,0,0
S,2338,9352008,450,0,0
S,2339,9356008,467,0,0
S,2340,9360008,483,0,0
S,2341,9364008,499,0,0
S,2342,9368008,515,0,0
S,2343,9372008,515,0,0
S,2344,9376008,515,0,0
S,2345,9380008,515,0,0
S,2346,9384008,515,0,0
S,2347,9388008,515,0,0
S,2348,9392008,515,0,0
S,2349,9396008,515,0,0
S,2350,9400008,516,0,0
S,2351,9404008,516,0,0
S,2352,9408012,519,0,0
S,2353,9412008,525,0,0
S,2354,9416008,530,0,0
S,2355,9420008,535,0,0
S,2356,9424008,540,0,0
S,2357,9428008,546,0,0
S,2358,9432008,551,0,0
S,2359,9436008,556,0,0
S,2360,9440008,561,0,0
S,2361,9444008,567,0,0
S,2362,9448008,572,0,0
S,2363,9452012,577,0,0
S,2364,9456008,582,0,0
S,2365,9460008,587,0,0
S,2366,9464008,593,0,0
S,2367,9468008,598,0,0
S,2368,9472008,598,0,0
S,2369,9476008,593,0,0
S,2370,9480008,587,0,0
S,2371,9484012,582,0,0
S,2372,9488008,577,0,0
S,2373,9492008,572,0,0
S,2374,9496008,567,0,0
S,2375,9500008,562,0,0
S,2376,9504008,557,0,0
S,2377,9508008,552,0,0
S,2378,9512008,547,0,0
S,2379,9516008,541,0,0
S,2380,9520008,536,0,0
S,2381,9524008,531,0,0
S,2382,9528008,526,0,0
S,2383,9532008,520,0,0
S,2384,9536008,517,0,0
S,2385,9540008,517,0,0
S,2386,9544008,517,0,0
S,2387,9548008,517,0,0
S,2388,9552008,517,0,0
S,2389,9556008,517,0,0
S,2390,9560012,517,0,0
S,2391,9564008,517,0,0
S,2392,9568008,517,0,0
S,2393,9572008,517,0,0
S,2394,9576008,517,0,0
S,2395,9580008,517,0,0
S,2396,9584008,517,0,0
S,2397,9588008,517,0,0
S,2398,9592008,517,0,0
S,2399,9596008,517,0,0
S,2400,9600008,518,0,0
S,2401,9604008,518,0,0
S,2402,9608008,518,0,0
S,2403,9612012,518,0,0
S,2404,9616008,518,0,0
S,2405,9620008,518,0,0
S,2406,9624012,518,0,0
S,2407,9628008,518,0,0
S,2408,9632008,518,0,0
S,2409,9636008,518,0,0
S,2410,9640008,518,0,0
S,2411,9644008,518,0,0
S,2412,9648008,518,0,0
S,2413,9652008,518,0,0
S,2414,9656008,518,0,0
S,2415,9660008,518,0,0
S,2416,9664012,521,0,0
S,2417,9668008,525,0,0
S,2418,9672008,529,0,0
S,2419,9676008,532,0,0
S,2420,9680008,536,0,0
S,2421,9684008,540,0,0
S,2422,9688008,544,0,0
S,2423,9692008,544,0,0
S,2424,9696008,540,0,0
S,2425,9700008,537,0,0
S,2426,9704008,533,0,0
S,2427,9708008,530,0,0
S,2428,9712008,526,0,0
S,2429,9716008,522,0,0
S,2430,9720008,519,0,0
S,2431,9724008,519,0,0
S,2432,9728008,519,0,0
S,2433,9732008,519,0,0
S,2434,9736008,519,0,0
S,2435,9740008,519,0,0
S,2436,9744008,519,0,0
S,2437,9748012,519,0,0
S,2438,9752012,519,0,0
S,2439,9756008,519,0,0
S,2440,9760008,512,0,0
S,2441,9764008,497,0,0
S,2442,9768008,482,0,0
S,2443,9772008,482,0,0
S,2444,9776008,497,0,0
S,2445,9780008,512,0,0
S,2446,9784008,519,0,0
S,2447,9788008,519,0,0
S,2448,9792008,604,0,0
S,2449,9796008,689,0,0
S,2450,9800008,775,0,0
S,2451,9804008,690,0,0
S,2452,9808008,605,0,0
S,2453,9812008,520,0,0
S,2454,9816012,520,0,0
S,2455,9820012,504,0,0
S,2456,9824008,488,0,0
S,2457,9828008,472,0,0
S,2458,9832008,455,0,0
S,2459,9836008,472,0,0
S,2460,9840008,488,0,0
S,2461,9844008,504,0,0
S,2462,9848008,520,0,0
S,2463,9852008,520,0,0
S,2464,9856008,520,0,0
S,2465,9860008,520,0,0
S,2466,9864008,520,0,0
S,2467,9868008,520,0,0
S,2468,9872008,520,0,0
S,2469,9876008,520,0,0
S,2470,9880012,520,0,0
S,2471,9884008,520,0,0
S,2472,9888008,523,0,0
S,2473,9892008,529,0,0
S,2474,9896008,534,0,0
S,2475,9900008,540,0,0
S,2476,9904008,545,0,0
S,2477,9908008,551,0,0
S,2478,9912008,556,0,0
S,2479,9916008,561,0,0
S,2480,9920012,566,0,0
S,2481,9924008,572,0,0
S,2482,9928008,577,0,0
S,2483,9932008,582,0,0
S,2484,9936008,587,0,0
S,2485,9940008,592,0,0
S,2486,9944008,598,0,0
S,2487,9948008,603,0,0
S,2488,9952008,603,0,0
S,2489,9956008,598,0,0
S,2490,9960008,592,0,0
S,2491,9964008,587,0,0
S,2492,9968012,582,0,0
S,2493,9972008,577,0,0
S,2494,9976008,572,0,0
S,2495,9980008,566,0,0
S,2496,9984008,561,0,0
S,2497,9988008,556,0,0
S,2498,9992008,551,0,0
S,2499,9996008,545,0,0
S,2500,10000012,541,0,0
S,2501,10004012,536,0,0
S,2502,10008008,531,0,0
S,2503,10012008,525,0,0
S,2504,10016008,522,0,0
S,2505,10020008,522,0,0
S,2506,10024008,522,0,0
S,2507,10028008,522,0,0
S,2508,10032008,522,0,0
S,2509,10036008,522,0,0
S,2510,10040008,522,0,0
S,2511,10044008,522,0,0
S,2512,10048008,522,0,0
S,2513,10052008,522,0,0
S,2514,10056008,522,0,0
S,2515,10060008,522,0,0
S,2516,10064008,522,0,0
S,2517,10068008,522,0,0
S,2518,10072008,522,0,0
S,2519,10076008,522,0,0
S,2520,10080008,522,0,0
S,2521,10084008,522,0,0
S,2522,10088008,522,0,0
S,2523,10092008,522,0,0
S,2524,10096008,522,0,0
S,2525,10100008,521,0,0
S,2526,10104008,521,0,0
S,2527,10108008,521,0,0
S,2528,10112008,521,0,0
S,2529,10116008,521,0,0
S,2530,10120012,521,0,0
S,2531,10124008,521,0,0
S,2532,10128008,521,0,0
S,2533,10132008,521,0,0
S,2534,10136008,521,0,0
S,2535,10140008,521,0,0
S,2536,10144008,524,0,0
S,2537,10148008,528,0,0
S,2538,10152008,532,0,0
S,2539,10156012,535,0,0
S,2540,10160008,539,0,0
S,2541,10164008,543,0,0
S,2542,10168008,547,0,0
S,2543,10172008,547,0,0
S,2544,10176008,543,0,0
S,2545,10180008,539,0,0
S,2546,10184008,535,0,0
S,2547,10188008,532,0,0
S,2548,10192008,528,0,0
S,2549,10196008,524,0,0
S,2550,10200012,520,0,0
S,2551,10204008,520,0,0
S,2552,10208008,520,0,0
S,2553,10212008,520,0,0
S,2554,10216008,520,0,0
S,2555,10220008,520,0,0
S,2556,10224008,520,0,0
S,2557,10228008,520,0,0
S,2558,10232008,520,0,0
S,2559,10236008,520,0,0
S,2560,10240008,513,0,0
S,2561,10244008,498,0,0
S,2562,10248008,483,0,0
S,2563,10252008,483,0,0
S,2564,10256008,498,0,0
S,2565,10260008,513,0,0
S,2566,10264008,520,0,0
S,2567,10268012,520,0,0
S,2568,10272012,605,0,0
S,2569,10276008,690,0,0
S,2570,10280008,775,0,0
S,2571,10284008,690,0,0
S,2572,10288008,605,0,0
S,2573,10292008,520,0,0
S,2574,10296008,520,0,0
S,2575,10300008,503,0,0
S,2576,10304008,487,0,0
S,2577,10308008,471,0,0
S,2578,10312008,454,0,0
S,2579,10316008,471,0,0
S,2580,10320008,487,0,0
S,2581,10324008,503,0,0
S,2582,10328008,519,0,0
S,2583,10332008,519,0,0
S,2584,10336012,519,0,0
S,2585,10340008,519,0,0
S,2586,10344008,519,0,0
S,2587,10348008,519,0,0
S,2588,10352008,519,0,0
S,2589,10356008,519,0,0
S,2590,10360008,519,0,0
S,2591,10364008,519,0,0
S,2592,10368008,522,0,0
S,2593,10372008,528,0,0
S,2594,10376008,533,0,0
S,2595,10380008,538,0,0
S,2596,10384008,543,0,0
S,2597,10388008,549,0,0
S,2598,10392012,554,0,0
S,2599,10396008,559,0,0
S,2600,10400008,563,0,0
S,2601,10404012,569,0,0
S,2602,10408012,574,0,0
S,2603,10412008,579,0,0
S,2604,10416008,584,0,0
S,2605,10420008,589,0,0
S,2606,10424008,595,0,0
S,2607,10428008,600,0,0
S,2608,10432012,600,0,0
S,2609,10436012,595,0,0
S,2610,10440008,589,0,0
S,2611,10444008,584,0,0
S,2612,10448008,579,0,0
S,2613,10452008,574,0,0
S,2614,10456008,569,0,0
S,2615,10460008,563,0,0
S,2616,10464008,558,0,0
S,2617,10468012,553,0,0
S,2618,10472008,548,0,0
S,2619,10476008,542,0,0
S,2620,10480008,537,0,0
S,2621,10484008,532,0,0
S,2622,10488012,527,0,0
S,2623,10492008,521,0,0
S,2624,10496008,518,0,0
S,2625,10500008,517,0,0
S,2626,10504012,517,0,0
S,2627,10508008,517,0,0
S,2628,10512008,517,0,0
S,2629,10516008,517,0,0
S,2630,10520008,517,0,0
S,2631,10524012,517,0,0
S,2632,10528008,517,0,0
S,2633,10532012,517,0,0
S,2634,10536008,517,0,0
S,2635,10540008,517,0,0
S,2636,10544008,517,0,0
S,2637,10548008,517,0,0
S,2638,10552008,517,0,0
S,2639,10556008,517,0,0
S,2640,10560008,517,0,0
S,2641,10564008,517,0,0
S,2642,10568008,517,0,0
S,2643,10572008,517,0,0
S,2644,10576008,517,0,0
S,2645,10580008,517,0,0
S,2646,10584008,517,0,0
S,2647,10588008,517,0,0
S,2648,10592012,517,0,0
S,2649,10596008,517,0,0
S,2650,10600012,516,0,0
S,2651,10604008,516,0,0
S,2652,10608008,516,0,0
S,2653,10612008,516,0,0
S,2654,10616008,516,0,0
S,2655,10620008,516,0,0
S,2656,10624008,519,0,0
S,2657,10628008,523,0,0
S,2658,10632008,527,0,0
S,2659,10636008,530,0,0
S,2660,10640008,534,0,0
S,2661,10644008,538,0,0
S,2662,10648008,542,0,0
S,2663,10652008,542,0,0
S,2664,10656008,538,0,0
S,2665,10660008,534,0,0
S,2666,10664008,530,0,0
S,2667,10668008,527,0,0
S,2668,10672008,523,0,0
S,2669,10676008,519,0,0
S,2670,10680008,516,0,0
S,2671,10684008,516,0,0
S,2672,10688008,516,0,0
S,2673,10692008,516,0,0
S,2674,10696012,516,0,0
S,2675,10700008,515,0,0
S,2676,10704008,515,0,0
S,2677,10708008,515,0,0
S,2678,10712008,515,0,0
S,2679,10716008,515,0,0
S,2680,10720008,508,0,0
S,2681,10724008,493,0,0
S,2682,10728008,478,0,0
S,2683,10732008,478,0,0
S,2684,10736008,493,0,0
S,2685,10740008,508,0,0
S,2686,10744008,515,0,0
S,2687,10748008,515,0,0
S,2688,10752008,600,0,0
S,2689,10756008,685,0,0
S,2690,10760008,770,0,0
S,2691,10764008,685,0,0
S,2692,10768008,600,0,0
S,2693,10772012,515,0,0
S,2694,10776008,515,0,0
S,2695,10780012,499,0,0
S,2696,10784012,483,0,0
S,2697,10788008,467,0,0
S,2698,10792008,450,0,0
S,2699,10796008,467,0,0
S,2700,10800008,482,0,0
S,2701,10804008,498,0,0
S,2702,10808012,514,0,0
S,2703,10812008,514,0,0
S,2704,10816008,514,0,0
S,2705,10820008,514,0,0
S,2706,10824008,514,0,0
S,2707,10828008,514,0,0
S,2708,10832008,514,0,0
S,2709,10836008,514,0,0
S,2710,10840008,514,0,0
S,2711,10844012,514,0,0
S,2712,10848008,517,0,0
S,2713,10852008,523,0,0
S,2714,10856012,528,0,0
S,2715,10860008,533,0,0
S,2716,10864008,538,0,0
S,2717,10868008,544,0,0
S,2718,10872008,549,0,0
S,2719,10876008,554,0,0
S,2720,10880008,559,0,0
S,2721,10884008,565,0,0
S,2722,10888008,570,0,0
S,2723,10892008,575,0,0
S,2724,10896008,580,0,0
S,2725,10900008,584,0,0
S,2726,10904008,590,0,0
S,2727,10908008,595,0,0
S,2728,10912008,595,0,0
S,2729,10916008,590,0,0
S,2730,10920008,584,0,0
S,2731,10924008,579,0,0
S,2732,10928008,574,0,0
S,2733,10932008,569,0,0
S,2734,10936008,564,0,0
S,2735,10940012,558,0,0
S,2736,10944008,553,0,0
S,2737,10948008,548,0,0
S,2738,10952008,543,0,0
S,2739,10956008,537,0,0
S,2740,10960008,532,0,0
S,2741,10964008,527,0,0
S,2742,10968008,522,0,0
S,2743,10972008,516,0,0
S,2744,10976008,513,0,0
S,2745,10980008,513,0,0
S,2746,10984008,513,0,0
S,2747,10988008,513,0,0
S,2748,10992012,513,0,0
S,2749,10996008,513,0,0
S,2750,11000008,512,0,0
S,2751,11004012,512,0,0
S,2752,11008008,512,0,0
S,2753,11012008,512,0,0
S,2754,11016008,512,0,0
S,2755,11020012,512,0,0
S,2756,11024008,512,0,0
S,2757,11028008,512,0,0
S,2758,11032008,512,0,0
S,2759,11036008,512,0,0
S,2760,11040008,512,0,0
S,2761,11044008,512,0,0
S,2762,11048008,512,0,0
S,2763,11052008,512,0,0
S,2764,11056008,512,0,0
S,2765,11060008,512,0,0
S,2766,11064008,512,0,0
S,2767,11068008,512,0,0
S,2768,11072008,512,0,0
S,2769,11076008,512,0,0
S,2770,11080008,512,0,0
S,2771,11084008,512,0,0
S,2772,11088008,512,0,0
S,2773,11092008,512,0,0
S,2774,11096008,512,0,0
S,2775,11100008,511,0,0
S,2776,11104008,514,0,0
S,2777,11108008,518,0,0
S,2778,11112008,522,0,0
S,2779,11116008,525,0,0
S,2780,11120008,529,0,0
S,2781,11124008,533,0,0
S,2782,11128008,537,0,0
S,2783,11132008,537,0,0
S,2784,11136008,533,0,0
S,2785,11140008,529,0,0
S,2786,11144008,525,0,0
S,2787,11148008,522,0,0
S,2788,11152008,518,0,0
S,2789,11156008,514,0,0
S,2790,11160008,511,0,0
S,2791,11164008,511,0,0
S,2792,11168008,511,0,0
S,2793,11172008,511,0,0
S,2794,11176008,511,0,0
S,2795,11180008,511,0,0
S,2796,11184008,511,0,0
S,2797,11188008,511,0,0
S,2798,11192008,511,0,0
S,2799,11196008,511,0,0
S,2800,11200008,503,0,0
S,2801,11204012,488,0,0
S,2802,11208008,473,0,0
S,2803,11212008,473,0,0
S,2804,11216012,488,0,0
S,2805,11220008,503,0,0
S,2806,11224008,510,0,0
S,2807,11228012,510,0,0
S,2808,11232008,595,0,0
S,2809,11236008,680,0,0
S,2810,11240008,765,0,0
S,2811,11244012,679,0,0
S,2812,11248008,595,0,0
S,2813,11252008,510,0,0
S,2814,11256008,510,0,0
S,2815,11260008,494,0,0
S,2816,11264008,478,0,0
S,2817,11268008,462,0,0
S,2818,11272008,445,0,0
S,2819,11276008,462,0,0
S,2820,11280008,478,0,0
S,2821,11284008,494,0,0
S,2822,11288012,510,0,0
S,2823,11292008,510,0,0
S,2824,11296008,510,0,0
S,2825,11300008,509,0,0
S,2826,11304008,509,0,0
S,2827,11308008,509,0,0
S,2828,11312008,509,0,0
S,2829,11316008,509,0,0
S,2830,11320008,509,0,0
S,2831,11324008,509,0,0
S,2832,11328008,512,0,0
S,2833,11332008,518,0,0
S,2834,11336012,523,0,0
S,2835,11340008,528,0,0
S,2836,11344008,533,0,0
S,2837,11348008,539,0,0
S,2838,11352008,544,0,0
S,2839,11356008,549,0,0
S,2840,11360008,554,0,0
S,2841,11364008,560,0,0
S,2842,11368008,565,0,0
S,2843,11372008,570,0,0
S,2844,11376008,575,0,0
S,2845,11380008,580,0,0
S,2846,11384012,586,0,0
S,2847,11388008,591,0,0
S,2848,11392008,591,0,0
S,2849,11396008,586,0,0
S,2850,11400008,579,0,0
S,2851,11404008,574,0,0
S,2852,11408008,569,0,0
S,2853,11412008,564,0,0
S,2854,11416012,558,0,0
S,2855,11420008,553,0,0
S,2856,11424008,548,0,0
S,2857,11428008,543,0,0
S,2858,11432008,538,0,0
S,2859,11436008,532,0,0
S,2860,11440008,527,0,0
S,2861,11444008,522,0,0
S,2862,11448008,517,0,0
S,2863,11452008,511,0,0
S,2864,11456008,508,0,0
S,2865,11460008,508,0,0
S,2866,11464008,508,0,0
S,2867,11468012,508,0,0
S,2868,11472008,508,0,0
S,2869,11476008,508,0,0
S,2870,11480008,508,0,0
S,2871,11484012,508,0,0
S,2872,11488008,508,0,0
S,2873,11492008,508,0,0
S,2874,11496012,508,0,0
S,2875,11500008,507,0,0
S,2876,11504012,507,0,0
S,2877,11508008,507,0,0
S,2878,11512008,507,0,0
S,2879,11516008,507,0,0
S,2880,11520008,507,0,0
S,2881,11524008,507,0,0
S,2882,11528012,507,0,0
S,2883,11532008,507,0,0
S,2884,11536012,507,0,0
S,2885,11540008,507,0,0
S,2886,11544008,507,0,0
S,2887,11548008,507,0,0
S,2888,11552008,507,0,0
S,2889,11556012,507,0,0
S,2890,11560008,507,0,0
S,2891,11564008,507,0,0
S,2892,11568008,507,0,0
S,2893,11572008,507,0,0
S,2894,11576012,507,0,0
S,2895,11580008,507,0,0
S,2896,11584008,510,0,0
S,2897,11588012,514,0,0
S,2898,11592008,518,0,0
S,2899,11596008,521,0,0
S,2900,11600008,524,0,0
S,2901,11604008,528,0,0
S,2902,11608008,532,0,0
S,2903,11612008,532,0,0
S,2904,11616008,528,0,0
S,2905,11620008,524,0,0
S,2906,11624008,520,0,0
S,2907,11628008,517,0,0
S,2908,11632008,513,0,0
S,2909,11636008,509,0,0
S,2910,11640008,506,0,0
S,2911,11644008,506,0,0
S,2912,11648008,506,0,0
S,2913,11652008,506,0,0
S,2914,11656008,506,0,0
S,2915,11660008,506,0,0
S,2916,11664008,506,0,0
S,2917,11668008,506,0,0
S,2918,11672008,506,0,0
S,2919,11676008,506,0,0
S,2920,11680008,499,0,0
S,2921,11684008,484,0,0
S,2922,11688008,469,0,0
S,2923,11692008,469,0,0
S,2924,11696008,484,0,0
S,2925,11700008,498,0,0
S,2926,11704008,505,0,0
S,2927,11708008,505,0,0
S,2928,11712008,590,0,0
S,2929,11716008,675,0,0
S,2930,11720008,760,0,0
S,2931,11724008,675,0,0
S,2932,11728008,590,0,0
S,2933,11732012,505,0,0
S,2934,11736008,505,0,0
S,2935,11740012,489,0,0
S,2936,11744008,473,0,0
S,2937,11748008,457,0,0
S,2938,11752008,440,0,0
S,2939,11756012,457,0,0
S,2940,11760008,473,0,0
S,2941,11764008,489,0,0
S,2942,11768008,505,0,0
S,2943,11772012,505,0,0
S,2944,11776008,505,0,0
S,2945,11780008,505,0,0
S,2946,11784008,505,0,0
S,2947,11788008,505,0,0
S,2948,11792008,505,0,0
S,2949,11796008,505,0,0
S,2950,11800008,504,0,0
S,2951,11804008,504,0,0
S,2952,11808008,507,0,0
S,2953,11812008,513,0,0
S,2954,11816008,518,0,0
S,2955,11820008,523,0,0
S,2956,11824008,528,0,0
S,2957,11828008,534,0,0
S,2958,11832008,539,0,0
S,2959,11836008,544,0,0
S,2960,11840008,549,0,0
S,2961,11844008,555,0,0
S,2962,11848012,560,0,0
S,2963,11852008,565,0,0
S,2964,11856008,570,0,0
S,2965,11860012,575,0,0
S,2966,11864008,581,0,0
S,2967,11868008,586,0,0
S,2968,11872008,586,0,0
S,2969,11876008,581,0,0
S,2970,11880012,575,0,0
S,2971,11884008,570,0,0
S,2972,11888008,565,0,0
S,2973,11892008,560,0,0
S,2974,11896008,555,0,0
S,2975,11900008,548,0,0
S,2976,11904008,543,0,0
S,2977,11908008,538,0,0
S,2978,11912008,533,0,0
S,2979,11916008,527,0,0
S,2980,11920008,522,0,0
S,2981,11924012,517,0,0
S,2982,11928008,512,0,0
S,2983,11932008,506,0,0
S,2984,11936008,503,0,0
S,2985,11940008,503,0,0
S,2986,11944012,503,0,0
S,2987,11948008,503,0,0
S,2988,11952008,503,0,0
S,2989,11956008,503,0,0
S,2990,11960008,503,0,0
S,2991,11964008,503,0,0
S,2992,11968012,503,0,0
S,2993,11972008,503,0,0
S,2994,11976008,503,0,0
S,2995,11980008,503,0,0
S,2996,11984012,503,0,0
S,2997,11988008,503,0,0
S,2998,11992008,503,0,0
S,2999,11996008,503,0,0
S,3000,12000008,502,0,0
S,3001,12004008,502,0,0
S,3002,12008008,502,0,0
S,3003,12012008,502,0,0
S,3004,12016008,502,0,0
S,3005,12020008,502,0,0
S,3006,12024008,502,0,0
S,3007,12028008,502,0,0
S,3008,12032008,502,0,0
S,3009,12036008,502,0,0
S,3010,12040008,502,0,0
S,3011,12044008,502,0,0
S,3012,12048008,502,0,0
S,3013,12052008,502,0,0
S,3014,12056008,502,0,0
S,3015,12060008,502,0,0
S,3016,12064008,505,0,0
S,3017,12068008,509,0,0
S,3018,12072008,513,0,0
S,3019,12076008,516,0,0
S,3020,12080012,520,0,0
S,3021,12084012,524,0,0
S,3022,12088008,528,0,0
S,3023,12092008,528,0,0
S,3024,12096008,524,0,0
S,3025,12100008,521,0,0
S,3026,12104008,517,0,0
S,3027,12108008,514,0,0
S,3028,12112012,510,0,0
S,3029,12116012,506,0,0
S,3030,12120008,503,0,0
S,3031,12124008,503,0,0
S,3032,12128008,503,0,0
S,3033,12132008,503,0,0
S,3034,12136008,503,0,0
S,3035,12140008,503,0,0
S,3036,12144008,503,0,0
S,3037,12148008,503,0,0
S,3038,12152008,503,0,0
S,3039,12156008,503,0,0
S,3040,12160012,496,0,0
S,3041,12164008,481,0,0
S,3042,12168008,466,0,0
S,3043,12172008,466,0,0
S,3044,12176008,481,0,0
S,3045,12180008,496,0,0
S,3046,12184012,503,0,0
S,3047,12188012,503,0,0
S,3048,12192008,588,0,0
S,3049,12196008,673,0,0
S,3050,12200008,759,0,0
S,3051,12204008,674,0,0
S,3052,12208008,589,0,0
S,3053,12212008,504,0,0
S,3054,12216012,504,0,0
S,3055,12220008,488,0,0
S,3056,12224008,472,0,0
S,3057,12228008,456,0,0
S,3058,12232008,439,0,0
S,3059,12236008,456,0,0
S,3060,12240008,472,0,0
S,3061,12244008,488,0,0
S,3062,12248008,504,0,0
S,3063,12252008,504,0,0
S,3064,12256008,504,0,0
S,3065,12260008,504,0,0
S,3066,12264008,504,0,0
S,3067,12268008,504,0,0
S,3068,12272008,504,0,0
S,3069,12276008,504,0,0
S,3070,12280008,504,0,0
S,3071,12284008,504,0,0
S,3072,12288012,507,0,0
S,3073,12292008,513,0,0
S,3074,12296008,518,0,0
S,3075,12300008,524,0,0
S,3076,12304008,529,0,0
S,3077,12308012,535,0,0
S,3078,12312008,540,0,0
S,3079,12316008,545,0,0
S,3080,12320008,550,0,0
S,3081,12324012,556,0,0
S,3082,12328008,561,0,0
S,3083,12332008,566,0,0
S,3084,12336008,571,0,0
S,3085,12340008,576,0,0
S,3086,12344008,582,0,0
S,3087,12348008,587,0,0
S,3088,12352008,587,0,0
S,3089,12356008,582,0,0
S,3090,12360008,576,0,0
S,3091,12364008,571,0,0
S,3092,12368008,566,0,0
S,3093,12372008,561,0,0
S,3094,12376008,556,0,0
S,3095,12380008,550,0,0
S,3096,12384008,545,0,0
S,3097,12388008,540,0,0
S,3098,12392012,535,0,0
S,3099,12396008,529,0,0
S,3100,12400008,525,0,0
S,3101,12404008,520,0,0
S,3102,12408008,515,0,0
S,3103,12412008,509,0,0
S,3104,12416008,506,0,0
S,3105,12420008,506,0,0
S,3106,12424008,506,0,0
S,3107,12428012,506,0,0
S,3108,12432008,506,0,0
S,3109,12436008,506,0,0
S,3110,12440008,506,0,0
S,3111,12444008,506,0,0
S,3112,12448008,506,0,0
S,3113,12452008,506,0,0
S,3114,12456008,506,0,0
S,3115,12460008,506,0,0
S,3116,12464012,506,0,0
S,3117,12468008,506,0,0
S,3118,12472008,506,0,0
S,3119,12476008,506,0,0
S,3120,12480008,506,0,0
S,3121,12484008,506,0,0
S,3122,12488008,506,0,0
S,3123,12492008,506,0,0
S,3124,12496012,506,0,0
S,3125,12500008,507,0,0
S,3126,12504008,507,0,0
S,3127,12508008,507,0,0
S,3128,12512008,507,0,0
S,3129,12516012,507,0,0
S,3130,12520008,507,0,0
S,3131,12524008,507,0,0
S,3132,12528008,507,0,0
S,3133,12532008,507,0,0
S,3134,12536008,507,0,0
S,3135,12540008,507,0,0
S,3136,12544008,510,0,0
S,3137,12548008,514,0,0
S,3138,12552008,518,0,0
S,3139,12556008,521,0,0
S,3140,12560008,525,0,0
S,3141,12564008,529,0,0
S,3142,12568012,533,0,0
S,3143,12572008,533,0,0
S,3144,12576008,529,0,0
S,3145,12580008,525,0,0
S,3146,12584008,521,0,0
S,3147,12588008,518,0,0
S,3148,12592008,514,0,0
S,3149,12596008,510,0,0
S,3150,12600008,508,0,0
S,3151,12604008,508,0,0
S,3152,12608008,508,0,0
S,3153,12612008,508,0,0
S,3154,12616008,508,0,0
S,3155,12620008,508,0,0
S,3156,12624008,508,0,0
S,3157,12628008,508,0,0
S,3158,12632008,508,0,0
S,3159,12636012,508,0,0
S,3160,12640008,501,0,0
S,3161,12644012,486,0,0
S,3162,12648008,471,0,0
S,3163,12652008,471,0,0
S,3164,12656008,486,0,0
S,3165,12660012,501,0,0
S,3166,12664008,508,0,0
S,3167,12668008,508,0,0
S,3168,12672008,593,0,0
S,3169,12676008,678,0,0
S,3170,12680008,763,0,0
S,3171,12684008,678,0,0
S,3172,12688008,593,0,0
S,3173,12692008,508,0,0
S,3174,12696008,508,0,0
S,3175,12700008,493,0,0
S,3176,12704008,477,0,0
S,3177,12708008,461,0,0
S,3178,12712008,444,0,0
S,3179,12716008,461,0,0
S,3180,12720008,477,0,0
S,3181,12724008,493,0,0
S,3182,12728012,509,0,0
S,3183,12732008,509,0,0
S,3184,12736008,509,0,0
S,3185,12740008,509,0,0
S,3186,12744008,509,0,0
S,3187,12748008,509,0,0
S,3188,12752012,509,0,0
S,3189,12756008,509,0,0
S,3190,12760008,509,0,0
S,3191,12764008,509,0,0
S,3192,12768008,512,0,0
S,3193,12772008,518,0,0
S,3194,12776008,523,0,0
S,3195,12780008,528,0,0
S,3196,12784008,533,0,0
S,3197,12788008,539,0,0
S,3198,12792008,544,0,0
S,3199,12796008,549,0,0
S,3200,12800008,555,0,0
S,3201,12804008,561,0,0
S,3202,12808008,566,0,0
S,3203,12812008,571,0,0
S,3204,12816008,576,0,0
S,3205,12820012,581,0,0
S,3206,12824008,587,0,0
S,3207,12828008,592,0,0
S,3208,12832008,592,0,0
S,3209,12836008,587,0,0
S,3210,12840008,581,0,0
S,3211,12844008,576,0,0
S,3212,12848008,571,0,0
S,3213,12852012,566,0,0
S,3214,12856008,561,0,0
S,3215,12860008,555,0,0
S,3216,12864008,550,0,0
S,3217,12868008,545,0,0
S,3218,12872008,540,0,0
S,3219,12876008,534,0,0
S,3220,12880008,529,0,0
S,3221,12884008,524,0,0
S,3222,12888008,519,0,0
S,3223,12892008,513,0,0
S,3224,12896008,510,0,0
S,3225,12900008,511,0,0
S,3226,12904008,511,0,0
S,3227,12908008,511,0,0
S,3228,12912008,511,0,0
S,3229,12916008,511,0,0
S,3230,12920008,511,0,0
S,3231,12924008,511,0,0
S,3232,12928008,511,0,0
S,3233,12932008,511,0,0
S,3234,12936008,511,0,0
S,3235,12940008,511,0,0
S,3236,12944008,511,0,0
S,3237,12948008,511,0,0
S,3238,12952008,511,0,0
S,3239,12956012,511,0,0
S,3240,12960008,511,0,0
S,3241,12964008,511,0,0
S,3242,12968008,511,0,0
S,3243,12972012,511,0,0
S,3244,12976012,511,0,0
S,3245,12980008,511,0,0
S,3246,12984008,511,0,0
S,3247,12988008,511,0,0
S,3248,12992008,511,0,0
S,3249,12996008,511,0,0
S,3250,13000008,512,0,0
S,3251,13004008,512,0,0
S,3252,13008008,512,0,0
S,3253,13012008,512,0,0
S,3254,13016008,512,0,0
S,3255,13020008,512,0,0
S,3256,13024008,515,0,0
S,3257,13028008,519,0,0
S,3258,13032008,523,0,0
S,3259,13036008,526,0,0
S,3260,13040008,530,0,0
S,3261,13044008,534,0,0
S,3262,13048008,538,0,0
S,3263,13052008,538,0,0
S,3264,13056008,534,0,0
S,3265,13060008,530,0,0
S,3266,13064008,526,0,0
S,3267,13068008,523,0,0
S,3268,13072008,519,0,0
S,3269,13076008,515,0,0
S,3270,13080008,512,0,0
S,3271,13084008,512,0,0
S,3272,13088008,512,0,0
S,3273,13092008,512,0,0
S,3274,13096008,512,0,0
S,3275,13100008,513,0,0
S,3276,13104008,513,0,0
S,3277,13108008,513,0,0
S,3278,13112012,513,0,0
S,3279,13116008,513,0,0
S,3280,13120008,506,0,0
S,3281,13124008,491,0,0
S,3282,13128008,476,0,0
S,3283,13132008,476,0,0
S,3284,13136008,491,0,0
S,3285,13140008,506,0,0
S,3286,13144008,513,0,0
S,3287,13148008,513,0,0
S,3288,13152008,598,0,0
S,3289,13156008,683,0,0
S,3290,13160012,767,0,0
S,3291,13164008,683,0,0
S,3292,13168008,598,0,0
S,3293,13172008,513,0,0
S,3294,13176008,513,0,0
S,3295,13180008,497,0,0
S,3296,13184008,481,0,0
S,3297,13188008,465,0,0
S,3298,13192008,448,0,0
S,3299,13196008,465,0,0
S,3300,13200008,482,0,0
S,3301,13204008,498,0,0
S,3302,13208008,514,0,0
S,3303,13212008,514,0,0
S,3304,13216008,514,0,0
S,3305,13220008,514,0,0
S,3306,13224008,514,0,0
S,3307,13228008,514,0,0
S,3308,13232008,514,0,0
S,3309,13236012,514,0,0
S,3310,13240008,514,0,0
S,3311,13244008,514,0,0
S,3312,13248008,517,0,0
S,3313,13252008,523,0,0
S,3314,13256008,528,0,0
S,3315,13260008,533,0,0
S,3316,13264012,538,0,0
S,3317,13268008,544,0,0
S,3318,13272008,549,0,0
S,3319,13276008,554,0,0
S,3320,13280008,559,0,0
S,3321,13284008,565,0,0
S,3322,13288012,570,0,0
S,3323,13292008,575,0,0
S,3324,13296008,580,0,0
S,3325,13300008,586,0,0
S,3326,13304008,592,0,0
S,3327,13308008,597,0,0
S,3328,13312008,597,0,0
S,3329,13316008,592,0,0
S,3330,13320008,586,0,0
S,3331,13324008,581,0,0
S,3332,13328008,576,0,0
S,3333,13332008,571,0,0
S,3334,13336008,566,0,0
S,3335,13340008,560,0,0
S,3336,13344008,555,0,0
S,3337,13348008,550,0,0
S,3338,13352008,545,0,0
S,3339,13356008,539,0,0
S,3340,13360008,534,0,0
S,3341,13364012,529,0,0
S,3342,13368008,524,0,0
S,3343,13372008,518,0,0
S,3344,13376008,515,0,0
S,3345,13380008,515,0,0
S,3346,13384008,515,0,0
S,3347,13388008,515,0,0
S,3348,13392008,515,0,0
S,3349,13396008,515,0,0
S,3350,13400008,516,0,0
S,3351,13404008,516,0,0
S,3352,13408008,516,0,0
S,3353,13412008,516,0,0
S,3354,13416008,516,0,0
S,3355,13420008,516,0,0
S,3356,13424008,516,0,0
S,3357,13428008,516,0,0
S,3358,13432008,516,0,0
S,3359,13436008,516,0,0
S,3360,13440008,516,0,0
S,3361,13444008,516,0,0
S,3362,13448008,516,0,0
S,3363,13452012,516,0,0
S,3364,13456008,516,0,0
S,3365,13460008,516,0,0
S,3366,13464008,516,0,0
S,3367,13468008,516,0,0
S,3368,13472008,516,0,0
S,3369,13476008,516,0,0
S,3370,13480008,516,0,0
S,3371,13484008,516,0,0
S,3372,13488008,516,0,0
S,3373,13492008,516,0,0
S,3374,13496008,516,0,0
S,3375,13500008,517,0,0
S,3376,13504008,520,0,0
S,3377,13508008,524,0,0
S,3378,13512008,528,0,0
S,3379,13516008,531,0,0
S,3380,13520012,535,0,0
S,3381,13524008,539,0,0
S,3382,13528008,543,0,0
S,3383,13532008,543,0,0
S,3384,13536008,539,0,0
S,3385,13540012,535,0,0
S,3386,13544008,531,0,0
S,3387,13548008,528,0,0
S,3388,13552008,524,0,0
S,3389,13556008,520,0,0
S,3390,13560008,517,0,0
S,3391,13564008,517,0,0
S,3392,13568012,517,0,0
S,3393,13572008,517,0,0
S,3394,13576008,517,0,0
S,3395,13580008,517,0,0
S,3396,13584008,517,0,0
S,3397,13588008,517,0,0
S,3398,13592008,517,0,0
S,3399,13596008,517,0,0
S,3400,13600008,511,0,0
S,3401,13604008,496,0,0
S,3402,13608008,481,0,0
S,3403,13612012,481,0,0
S,3404,13616008,496,0,0
S,3405,13620008,511,0,0
S,3406,13624008,518,0,0
S,3407,13628008,518,0,0
S,3408,13632008,603,0,0
S,3409,13636008,688,0,0
S,3410,13640008,773,0,0
S,3411,13644008,688,0,0
S,3412,13648008,603,0,0
S,3413,13652008,518,0,0
S,3414,13656008,518,0,0
S,3415,13660008,502,0,0
S,3416,13664008,486,0,0
S,3417,13668008,470,0,0
S,3418,13672008,453,0,0
S,3419,13676008,470,0,0
S,3420,13680012,486,0,0
S,3421,13684008,502,0,0
S,3422,13688008,518,0,0
S,3423,13692012,518,0,0
S,3424,13696008,518,0,0
S,3425,13700012,519,0,0
S,3426,13704008,519,0,0
S,3427,13708008,519,0,0
S,3428,13712008,519,0,0
S,3429,13716008,519,0,0
S,3430,13720008,519,0,0
S,3431,13724012,519,0,0
S,3432,13728008,522,0,0
S,3433,13732008,528,0,0
S,3434,13736008,533,0,0
S,3435,13740008,538,0,0
S,3436,13744008,543,0,0
S,3437,13748012,549,0,0
S,3438,13752008,554,0,0
S,3439,13756008,559,0,0
S,3440,13760008,564,0,0
S,3441,13764008,570,0,0
S,3442,13768012,575,0,0
S,3443,13772008,580,0,0
S,3444,13776008,585,0,0
S,3445,13780008,590,0,0
S,3446,13784008,596,0,0
S,3447,13788008,601,0,0
S,3448,13792008,601,0,0
S,3449,13796008,596,0,0
S,3450,13800008,591,0,0
S,3451,13804008,586,0,0
S,3452,13808008,581,0,0
S,3453,13812008,576,0,0
S,3454,13816012,570,0,0
S,3455,13820008,565,0,0
S,3456,13824008,560,0,0
S,3457,13828008,555,0,0
S,3458,13832008,550,0,0
S,3459,13836008,544,0,0
S,3460,13840012,539,0,0
S,3461,13844008,534,0,0
S,3462,13848008,529,0,0
S,3463,13852008,523,0,0
S,3464,13856008,520,0,0
S,3465,13860008,520,0,0
S,3466,13864008,520,0,0
S,3467,13868008,520,0,0
S,3468,13872008,520,0,0
S,3469,13876008,520,0,0
S,3470,13880008,520,0,0
S,3471,13884008,520,0,0
S,3472,13888008,520,0,0
S,3473,13892012,520,0,0
S,3474,13896008,520,0,0
S,3475,13900008,521,0,0
S,3476,13904008,521,0,0
S,3477,13908008,521,0,0
S,3478,13912008,521,0,0
S,3479,13916008,521,0,0
S,3480,13920008,521,0,0
S,3481,13924008,521,0,0
S,3482,13928012,521,0,0
S,3483,13932008,521,0,0
S,3484,13936008,521,0,0
S,3485,13940008,521,0,0
S,3486,13944008,521,0,0
S,3487,13948008,521,0,0
S,3488,13952012,521,0,0
S,3489,13956008,521,0,0
S,3490,13960008,521,0,0
S,3491,13964008,521,0,0
S,3492,13968008,521,0,0
S,3493,13972008,521,0,0
S,3494,13976008,521,0,0
S,3495,13980008,521,0,0
S,3496,13984008,524,0,0
S,3497,13988012,528,0,0
S,3498,13992012,532,0,0
S,3499,13996012,535,0,0
S,3500,14000008,540,0,0
S,3501,14004012,544,0,0
S,3502,14008008,548,0,0
S,3503,14012008,548,0,0
S,3504,14016008,544,0,0
S,3505,14020008,540,0,0
S,3506,14024008,536,0,0
S,3507,14028008,533,0,0
S,3508,14032008,529,0,0
S,3509,14036008,525,0,0
S,3510,14040008,522,0,0
S,3511,14044008,522,0,0
S,3512,14048008,522,0,0
S,3513,14052008,522,0,0
S,3514,14056012,522,0,0
S,3515,14060008,522,0,0
S,3516,14064008,522,0,0
S,3517,14068008,522,0,0
S,3518,14072008,522,0,0
S,3519,14076008,522,0,0
S,3520,14080008,515,0,0
S,3521,14084008,500,0,0
S,3522,14088008,485,0,0
S,3523,14092008,485,0,0
S,3524,14096008,500,0,0
S,3525,14100008,514,0,0
S,3526,14104008,521,0,0
S,3527,14108008,521,0,0
S,3528,14112008,606,0,0
S,3529,14116008,691,0,0
S,3530,14120008,776,0,0
S,3531,14124008,691,0,0
S,3532,14128008,606,0,0
S,3533,14132008,521,0,0
S,3534,14136012,521,0,0
S,3535,14140012,505,0,0
S,3536,14144008,489,0,0
S,3537,14148008,473,0,0
S,3538,14152012,457,0,0
S,3539,14156008,473,0,0
S,3540,14160008,489,0,0
S,3541,14164008,505,0,0
S,3542,14168008,521,0,0
S,3543,14172012,521,0,0
S,3544,14176008,521,0,0
S,3545,14180012,521,0,0
S,3546,14184008,521,0,0
S,3547,14188008,521,0,0
S,3548,14192008,521,0,0
S,3549,14196008,521,0,0
S,3550,14200008,520,0,0
S,3551,14204008,520,0,0
S,3552,14208008,523,0,0
S,3553,14212008,529,0,0
S,3554,14216008,534,0,0
S,3555,14220008,539,0,0
S,3556,14224008,544,0,0
S,3557,14228008,550,0,0
S,3558,14232008,555,0,0
S,3559,14236012,560,0,0
S,3560,14240008,565,0,0
S,3561,14244008,571,0,0
S,3562,14248008,576,0,0
S,3563,14252008,581,0,0
S,3564,14256008,586,0,0
S,3565,14260008,591,0,0
S,3566,14264012,597,0,0
S,3567,14268008,602,0,0
S,3568,14272008,602,0,0
S,3569,14276008,597,0,0
S,3570,14280012,591,0,0
S,3571,14284008,586,0,0
S,3572,14288008,581,0,0
S,3573,14292008,576,0,0
S,3574,14296012,570,0,0
S,3575,14300008,564,0,0
S,3576,14304008,559,0,0
S,3577,14308008,554,0,0
S,3578,14312008,549,0,0
S,3579,14316008,543,0,0
S,3580,14320008,538,0,0
S,3581,14324008,533,0,0
S,3582,14328008,528,0,0
S,3583,14332008,522,0,0
S,3584,14336008,519,0,0
S,3585,14340008,519,0,0
S,3586,14344008,519,0,0
S,3587,14348008,519,0,0
S,3588,14352008,519,0,0
S,3589,14356008,519,0,0
S,3590,14360008,519,0,0
S,3591,14364008,519,0,0
S,3592,14368008,519,0,0
S,3593,14372008,519,0,0
S,3594,14376008,519,0,0
S,3595,14380012,519,0,0
S,3596,14384008,519,0,0
S,3597,14388008,519,0,0
S,3598,14392008,519,0,0
S,3599,14396008,519,0,0
S,3600,14400008,518,0,0
S,3601,14404012,518,0,0
S,3602,14408008,518,0,0
S,3603,14412008,518,0,0
S,3604,14416008,518,0,0
S,3605,14420008,518,0,0
S,3606,14424012,518,0,0
S,3607,14428008,518,0,0
S,3608,14432008,518,0,0
S,3609,14436008,518,0,0
S,3610,14440008,518,0,0
S,3611,14444008,518,0,0
S,3612,14448008,518,0,0
S,3613,14452008,518,0,0
S,3614,14456008,518,0,0
S,3615,14460008,518,0,0
S,3616,14464008,521,0,0
S,3617,14468008,525,0,0
S,3618,14472008,529,0,0
S,3619,14476008,532,0,0
S,3620,14480008,536,0,0
S,3621,14484008,540,0,0
S,3622,14488008,544,0,0
S,3623,14492008,544,0,0
S,3624,14496008,540,0,0
S,3625,14500008,535,0,0
S,3626,14504008,531,0,0
S,3627,14508012,528,0,0
S,3628,14512008,524,0,0
S,3629,14516008,520,0,0
S,3630,14520012,517,0,0
S,3631,14524008,517,0,0
S,3632,14528008,517,0,0
S,3633,14532008,517,0,0
S,3634,14536008,517,0,0
S,3635,14540008,517,0,0
S,3636,14544008,517,0,0
S,3637,14548008,517,0,0
S,3638,14552008,517,0,0
S,3639,14556008,517,0,0
S,3640,14560008,510,0,0
S,3641,14564008,495,0,0
S,3642,14568008,480,0,0
S,3643,14572008,480,0,0
S,3644,14576008,495,0,0
S,3645,14580008,510,0,0
S,3646,14584008,517,0,0
S,3647,14588008,517,0,0
S,3648,14592008,602,0,0
S,3649,14596008,687,0,0
S,3650,14600008,771,0,0
S,3651,14604012,685,0,0
S,3652,14608008,601,0,0
S,3653,14612012,516,0,0
S,3654,14616008,516,0,0
S,3655,14620008,500,0,0
S,3656,14624008,484,0,0
S,3657,14628008,468,0,0
S,3658,14632008,451,0,0
S,3659,14636008,468,0,0
S,3660,14640008,484,0,0
S,3661,14644008,500,0,0
S,3662,14648008,516,0,0
S,3663,14652008,516,0,0
S,3664,14656008,516,0,0
S,3665,14660012,516,0,0
S,3666,14664008,516,0,0
S,3667,14668008,516,0,0
S,3668,14672008,516,0,0
S,3669,14676008,516,0,0
S,3670,14680008,516,0,0
S,3671,14684008,516,0,0
S,3672,14688008,519,0,0
S,3673,14692008,525,0,0
S,3674,14696008,530,0,0
S,3675,14700008,534,0,0
S,3676,14704008,539,0,0
S,3677,14708008,545,0,0
S,3678,14712008,550,0,0
S,3679,14716008,555,0,0
S,3680,14720008,560,0,0
S,3681,14724008,566,0,0
S,3682,14728008,571,0,0
S,3683,14732008,576,0,0
S,3684,14736008,581,0,0
S,3685,14740012,586,0,0
S,3686,14744008,592,0,0
S,3687,14748008,597,0,0
S,3688,14752012,597,0,0
S,3689,14756008,592,0,0
S,3690,14760008,586,0,0
S,3691,14764008,581,0,0
S,3692,14768008,576,0,0
S,3693,14772012,571,0,0
S,3694,14776008,566,0,0
S,3695,14780008,560,0,0
S,3696,14784008,555,0,0
S,3697,14788008,550,0,0
S,3698,14792012,545,0,0
S,3699,14796008,539,0,0
S,3700,14800008,533,0,0
S,3701,14804008,528,0,0
S,3702,14808008,523,0,0
S,3703,14812008,517,0,0
S,3704,14816008,514,0,0
S,3705,14820008,514,0,0
S,3706,14824008,514,0,0
S,3707,14828008,514,0,0
S,3708,14832008,514,0,0
S,3709,14836008,514,0,0
S,3710,14840008,514,0,0
S,3711,14844008,514,0,0
S,3712,14848008,514,0,0
S,3713,14852008,514,0,0
S,3714,14856008,514,0,0
S,3715,14860008,514,0,0
S,3716,14864008,514,0,0
S,3717,14868008,514,0,0
S,3718,14872012,514,0,0
S,3719,14876008,514,0,0
S,3720,14880008,514,0,0
S,3721,14884008,514,0,0
S,3722,14888008,514,0,0
S,3723,14892008,514,0,0
S,3724,14896008,514,0,0
S,3725,14900008,513,0,0
S,3726,14904008,513,0,0
S,3727,14908008,513,0,0
S,3728,14912008,513,0,0
S,3729,14916008,513,0,0
S,3730,14920008,513,0,0
S,3731,14924008,513,0,0
S,3732,14928008,513,0,0
S,3733,14932008,513,0,0
S,3734,14936008,513,0,0
S,3735,14940008,513,0,0
S,3736,14944008,516,0,0
S,3737,14948012,520,0,0
S,3738,14952012,524,0,0
S,3739,14956008,527,0,0
S,3740,14960008,531,0,0
S,3741,14964008,535,0,0
S,3742,14968008,539,0,0
S,3743,14972008,539,0,0
S,3744,14976008,535,0,0
S,3745,14980008,531,0,0
S,3746,14984008,527,0,0
S,3747,14988008,524,0,0
S,3748,14992008,520,0,0
S,3749,14996008,516,0,0
S,3750,15000008,512,0,0
S,3751,15004008,512,0,0
S,3752,15008008,512,0,0
S,3753,15012008,512,0,0
S,3754,15016008,512,0,0
S,3755,15020008,512,0,0
S,3756,15024008,512,0,0
S,3757,15028008,512,0,0
S,3758,15032008,512,0,0
S,3759,15036008,512,0,0
S,3760,15040008,505,0,0
S,3761,15044008,490,0,0
S,3762,15048008,475,0,0
S,3763,15052008,475,0,0
S,3764,15056012,490,0,0
S,3765,15060008,505,0,0
S,3766,15064008,512,0,0
S,3767,15068008,512,0,0
S,3768,15072008,597,0,0
S,3769,15076008,682,0,0
S,3770,15080008,767,0,0
S,3771,15084008,682,0,0
S,3772,15088008,597,0,0
S,3773,15092008,512,0,0
S,3774,15096008,512,0,0
S,3775,15100008,495,0,0
S,3776,15104008,479,0,0
S,3777,15108008,463,0,0
S,3778,15112012,447,0,0
S,3779,15116008,463,0,0
S,3780,15120008,479,0,0
S,3781,15124008,495,0,0
S,3782,15128008,511,0,0
S,3783,15132008,511,0,0
S,3784,15136008,511,0,0
S,3785,15140008,511,0,0
S,3786,15144008,511,0,0
S,3787,15148008,511,0,0
S,3788,15152008,511,0,0
S,3789,15156008,511,0,0
S,3790,15160008,511,0,0
S,3791,15164008,511,0,0
S,3792,15168008,514,0,0
S,3793,15172008,520,0,0
S,3794,15176008,525,0,0
S,3795,15180008,530,0,0
S,3796,15184008,535,0,0
S,3797,15188008,541,0,0
S,3798,15192012,546,0,0
S,3799,15196008,551,0,0
S,3800,15200012,555,0,0
S,3801,15204008,561,0,0
S,3802,15208008,566,0,0
S,3803,15212008,571,0,0
S,3804,15216008,576,0,0
S,3805,15220008,581,0,0
S,3806,15224012,587,0,0
S,3807,15228008,592,0,0
S,3808,15232008,592,0,0
S,3809,15236008,587,0,0
S,3810,15240008,581,0,0
S,3811,15244008,576,0,0
S,3812,15248008,571,0,0
S,3813,15252008,566,0,0
S,3814,15256008,561,0,0
S,3815,15260012,555,0,0
S,3816,15264008,550,0,0
S,3817,15268008,545,0,0
S,3818,15272008,540,0,0
S,3819,15276008,534,0,0
S,3820,15280008,529,0,0
S,3821,15284008,524,0,0
S,3822,15288008,519,0,0
S,3823,15292008,513,0,0
S,3824,15296008,510,0,0
S,3825,15300008,509,0,0
S,3826,15304012,509,0,0
S,3827,15308008,509,0,0
S,3828,15312008,509,0,0
S,3829,15316008,509,0,0
S,3830,15320008,509,0,0
S,3831,15324012,509,0,0
S,3832,15328012,509,0,0
S,3833,15332008,509,0,0
S,3834,15336008,509,0,0
S,3835,15340008,509,0,0
S,3836,15344008,509,0,0
S,3837,15348008,509,0,0
S,3838,15352008,509,0,0
S,3839,15356008,509,0,0
S,3840,15360008,509,0,0
S,3841,15364008,509,0,0
S,3842,15368012,509,0,0
S,3843,15372008,509,0,0
S,3844,15376008,509,0,0
S,3845,15380008,509,0,0
S,3846,15384008,509,0,0
S,3847,15388008,509,0,0
S,3848,15392008,509,0,0
S,3849,15396008,509,0,0
S,3850,15400012,508,0,0
S,3851,15404008,508,0,0
S,3852,15408008,508,0,0
S,3853,15412008,508,0,0
S,3854,15416008,508,0,0
S,3855,15420008,508,0,0
S,3856,15424008,511,0,0
S,3857,15428008,515,0,0
S,3858,15432008,519,0,0
S,3859,15436008,522,0,0
S,3860,15440008,526,0,0
S,3861,15444008,530,0,0
S,3862,15448008,534,0,0
S,3863,15452008,534,0,0
S,3864,15456008,530,0,0
S,3865,15460008,526,0,0
S,3866,15464008,522,0,0
S,3867,15468008,519,0,0
S,3868,15472008,515,0,0
S,3869,15476008,511,0,0
S,3870,15480008,508,0,0
S,3871,15484008,508,0,0
S,3872,15488012,508,0,0
S,3873,15492008,508,0,0
S,3874,15496008,508,0,0
S,3875,15500008,507,0,0
S,3876,15504008,507,0,0
S,3877,15508008,507,0,0
S,3878,15512008,507,0,0
S,3879,15516008,507,0,0
S,3880,15520008,500,0,0
S,3881,15524008,485,0,0
S,3882,15528008,470,0,0
S,3883,15532008,470,0,0
S,3884,15536008,485,0,0
S,3885,15540008,500,0,0
S,3886,15544008,507,0,0
S,3887,15548008,507,0,0
S,3888,15552008,592,0,0
S,3889,15556008,677,0,0
S,3890,15560008,762,0,0
S,3891,15564008,677,0,0
S,3892,15568008,592,0,0
S,3893,15572008,507,0,0
S,3894,15576008,507,0,0
S,3895,15580008,491,0,0
S,3896,15584008,475,0,0
S,3897,15588008,459,0,0
S,3898,15592008,442,0,0
S,3899,15596008,459,0,0
S,3900,15600008,474,0,0
S,3901,15604008,490,0,0
S,3902,15608008,506,0,0
S,3903,15612008,506,0,0
S,3904,15616008,506,0,0
S,3905,15620008,506,0,0
S,3906,15624008,506,0,0
S,3907,15628008,506,0,0
S,3908,15632008,506,0,0
S,3909,15636012,506,0,0
S,3910,15640008,506,0,0
S,3911,15644008,506,0,0
S,3912,15648008,509,0,0
S,3913,15652008,515,0,0
S,3914,15656008,520,0,0
S,3915,15660008,525,0,0
S,3916,15664008,530,0,0
S,3917,15668008,536,0,0
S,3918,15672008,541,0,0
S,3919,15676008,546,0,0
S,3920,15680012,551,0,0
S,3921,15684008,557,0,0
S,3922,15688008,562,0,0
S,3923,15692008,567,0,0
S,3924,15696008,572,0,0
S,3925,15700008,576,0,0
S,3926,15704012,582,0,0
S,3927,15708008,587,0,0
S,3928,15712008,587,0,0
S,3929,15716012,582,0,0
S,3930,15720008,576,0,0
S,3931,15724008,571,0,0
S,3932,15728008,566,0,0
S,3933,15732008,561,0,0
S,3934,15736008,556,0,0
S,3935,15740008,550,0,0
S,3936,15744008,545,0,0
S,3937,15748008,540,0,0
S,3938,15752008,535,0,0
S,3939,15756008,529,0,0
S,3940,15760008,524,0,0
S,3941,15764012,519,0,0
S,3942,15768008,514,0,0
S,3943,15772008,508,0,0
S,3944,15776008,505,0,0
S,3945,15780008,505,0,0
S,3946,15784008,505,0,0
S,3947,15788008,505,0,0
S,3948,15792008,505,0,0
S,3949,15796008,505,0,0
S,3950,15800008,504,0,0
S,3951,15804008,504,0,0
S,3952,15808012,504,0,0
S,3953,15812008,504,0,0
S,3954,15816012,504,0,0
S,3955,15820008,504,0,0
S,3956,15824008,504,0,0
S,3957,15828008,504,0,0
S,3958,15832008,504,0,0
S,3959,15836008,504,0,0
S,3960,15840008,504,0,0
S,3961,15844008,504,0,0
S,3962,15848008,504,0,0
S,3963,15852008,504,0,0
S,3964,15856008,504,0,0
S,3965,15860008,504,0,0
S,3966,15864008,504,0,0
S,3967,15868008,504,0,0
S,3968,15872008,504,0,0
S,3969,15876008,504,0,0
S,3970,15880008,504,0,0
S,3971,15884008,504,0,0
S,3972,15888008,504,0,0
S,3973,15892008,504,0,0
S,3974,15896008,504,0,0
S,3975,15900008,503,0,0
S,3976,15904008,506,0,0
S,3977,15908012,510,0,0
S,3978,15912012,514,0,0
S,3979,15916008,517,0,0
S,3980,15920008,521,0,0
S,3981,15924012,525,0,0
S,3982,15928012,529,0,0
S,3983,15932008,529,0,0
S,3984,15936008,525,0,0
S,3985,15940008,521,0,0
S,3986,15944008,517,0,0
S,3987,15948008,514,0,0
S,3988,15952008,510,0,0
S,3989,15956008,506,0,0
S,3990,15960008,503,0,0
S,3991,15964008,503,0,0
S,3992,15968008,503,0,0
S,3993,15972008,503,0,0
S,3994,15976008,503,0,0
S,3995,15980008,503,0,0
S,3996,15984008,503,0,0
S,3997,15988008,503,0,0
S,3998,15992008,503,0,0
S,3999,15996008,503,0,0
S,4000,16000008,495,0,0
S,4001,16004008,480,0,0
S,4002,16008008,465,0,0
S,4003,16012008,465,0,0
S,4004,16016008,480,0,0
S,4005,16020008,495,0,0
S,4006,16024008,502,0,0
S,4007,16028012,502,0,0
S,4008,16032008,587,0,0
S,4009,16036008,672,0,0
S,4010,16040008,757,0,0
S,4011,16044008,672,0,0
S,4012,16048008,587,0,0
S,4013,16052008,502,0,0
S,4014,16056008,502,0,0
S,4015,16060008,486,0,0
S,4016,16064008,470,0,0
S,4017,16068008,454,0,0
S,4018,16072008,437,0,0
S,4019,16076008,454,0,0
S,4020,16080008,470,0,0
S,4021,16084008,486,0,0
S,4022,16088008,502,0,0
S,4023,16092008,502,0,0
S,4024,16096008,502,0,0
S,4025,16100008,503,0,0
S,4026,16104008,503,0,0
S,4027,16108008,503,0,0
S,4028,16112008,503,0,0
S,4029,16116008,503,0,0
S,4030,16120008,503,0,0
S,4031,16124008,503,0,0
S,4032,16128008,506,0,0
S,4033,16132008,512,0,0
S,4034,16136008,517,0,0
S,4035,16140008,522,0,0
S,4036,16144008,527,0,0
S,4037,16148008,533,0,0
S,4038,16152008,538,0,0
S,4039,16156008,543,0,0
S,4040,16160008,548,0,0
S,4041,16164012,554,0,0
S,4042,16168008,559,0,0
S,4043,16172008,564,0,0
S,4044,16176008,569,0,0
S,4045,16180008,574,0,0
S,4046,16184008,580,0,0
S,4047,16188012,585,0,0
S,4048,16192008,585,0,0
S,4049,16196008,580,0,0
S,4050,16200008,575,0,0
S,4051,16204008,570,0,0
S,4052,16208008,565,0,0
S,4053,16212008,560,0,0
S,4054,16216008,555,0,0
S,4055,16220008,549,0,0
S,4056,16224008,544,0,0
S,4057,16228008,539,0,0
S,4058,16232008,534,0,0
S,4059,16236012,528,0,0
S,4060,16240008,523,0,0
S,4061,16244012,518,0,0
S,4062,16248008,513,0,0
S,4063,16252008,507,0,0
S,4064,16256008,504,0,0
S,4065,16260008,504,0,0
S,4066,16264008,504,0,0
S,4067,16268008,504,0,0
S,4068,16272008,504,0,0
S,4069,16276012,504,0,0
S,4070,16280008,504,0,0
S,4071,16284008,504,0,0
S,4072,16288008,504,0,0
S,4073,16292008,504,0,0
S,4074,16296008,504,0,0
S,4075,16300008,505,0,0
S,4076,16304008,505,0,0
S,4077,16308008,505,0,0
S,4078,16312012,505,0,0
S,4079,16316008,505,0,0
S,4080,16320008,505,0,0
S,4081,16324008,505,0,0
S,4082,16328008,505,0,0
S,4083,16332008,505,0,0
S,4084,16336012,505,0,0
S,4085,16340008,505,0,0
S,4086,16344008,505,0,0
S,4087,16348008,505,0,0
S,4088,16352008,505,0,0
S,4089,16356008,505,0,0
S,4090,16360008,505,0,0
S,4091,16364008,505,0,0
S,4092,16368008,505,0,0
S,4093,16372012,505,0,0
S,4094,16376008,505,0,0
S,4095,16380008,505,0,0
S,4096,16384008,508,0,0
S,4097,16388012,512,0,0
S,4098,16392008,516,0,0
S,4099,16396012,519,0,0
S,4100,16400008,524,0,0
S,4101,16404012,528,0,0
S,4102,16408008,532,0,0
S,4103,16412008,532,0,0
S,4104,16416008,528,0,0
S,4105,16420012,524,0,0
S,4106,16424008,520,0,0
S,4107,16428008,517,0,0
S,4108,16432008,513,0,0
S,4109,16436008,509,0,0
S,4110,16440008,506,0,0
S,4111,16444008,506,0,0
S,4112,16448008,506,0,0
S,4113,16452012,506,0,0
S,4114,16456008,506,0,0
S,4115,16460008,506,0,0
S,4116,16464012,506,0,0
S,4117,16468008,506,0,0
S,4118,16472008,506,0,0
S,4119,16476008,506,0,0
S,4120,16480008,499,0,0
S,4121,16484008,484,0,0
S,4122,16488008,469,0,0
S,4123,16492008,469,0,0
S,4124,16496008,484,0,0
S,4125,16500008,500,0,0
S,4126,16504012,507,0,0
S,4127,16508008,507,0,0
S,4128,16512008,592,0,0
S,4129,16516008,677,0,0
S,4130,16520008,762,0,0
S,4131,16524008,677,0,0
S,4132,16528008,592,0,0
S,4133,16532008,507,0,0
S,4134,16536012,507,0,0
S,4135,16540008,491,0,0
S,4136,16544008,475,0,0
S,4137,16548008,459,0,0
S,4138,16552008,442,0,0
S,4139,16556008,459,0,0
S,4140,16560008,475,0,0
S,4141,16564008,491,0,0
S,4142,16568008,507,0,0
S,4143,16572012,507,0,0
S,4144,16576008,507,0,0
S,4145,16580008,507,0,0
S,4146,16584008,507,0,0
S,4147,16588008,507,0,0
S,4148,16592008,507,0,0
S,4149,16596008,507,0,0
S,4150,16600012,508,0,0
S,4151,16604008,508,0,0
S,4152,16608008,511,0,0
S,4153,16612012,517,0,0
S,4154,16616008,522,0,0
S,4155,16620008,527,0,0
S,4156,16624008,532,0,0
S,4157,16628008,538,0,0
S,4158,16632008,543,0,0
S,4159,16636008,548,0,0
S,4160,16640012,553,0,0
S,4161,16644008,559,0,0
S,4162,16648008,564,0,0
S,4163,16652008,569,0,0
S,4164,16656008,574,0,0
S,4165,16660008,579,0,0
S,4166,16664008,585,0,0
S,4167,16668008,590,0,0
S,4168,16672008,590,0,0
S,4169,16676008,585,0,0
S,4170,16680012,579,0,0
S,4171,16684008,574,0,0
S,4172,16688008,569,0,0
S,4173,16692008,564,0,0
S,4174,16696008,559,0,0
S,4175,16700008,554,0,0
S,4176,16704008,549,0,0
S,4177,16708008,544,0,0
S,4178,16712008,539,0,0
S,4179,16716008,533,0,0
S,4180,16720008,528,0,0
S,4181,16724012,523,0,0
S,4182,16728008,518,0,0
S,4183,16732008,512,0,0
S,4184,16736008,509,0,0
S,4185,16740008,509,0,0
S,4186,16744008,509,0,0
S,4187,16748008,509,0,0
S,4188,16752008,509,0,0
S,4189,16756008,509,0,0
S,4190,16760008,509,0,0
S,4191,16764008,509,0,0
S,4192,16768008,509,0,0
S,4193,16772008,509,0,0
S,4194,16776008,509,0,0
S,4195,16780008,509,0,0
S,4196,16784012,509,0,0
S,4197,16788008,509,0,0
S,4198,16792008,509,0,0
S,4199,16796012,509,0,0
S,4200,16800008,510,0,0
S,4201,16804008,510,0,0
S,4202,16808008,510,0,0
S,4203,16812008,510,0,0
S,4204,16816012,510,0,0
S,4205,16820008,510,0,0
S,4206,16824008,510,0,0
S,4207,16828008,510,0,0
S,4208,16832008,510,0,0
S,4209,16836008,510,0,0
S,4210,16840008,510,0,0
S,4211,16844008,510,0,0
S,4212,16848008,510,0,0
S,4213,16852008,510,0,0
S,4214,16856008,510,0,0
S,4215,16860008,510,0,0
S,4216,16864008,513,0,0
S,4217,16868008,517,0,0
S,4218,16872008,521,0,0
S,4219,16876008,524,0,0
S,4220,16880008,528,0,0
S,4221,16884008,532,0,0
S,4222,16888008,536,0,0
S,4223,16892008,536,0,0
S,4224,16896008,532,0,0
S,4225,16900008,529,0,0
S,4226,16904008,525,0,0
S,4227,16908008,522,0,0
S,4228,16912008,518,0,0
S,4229,16916008,514,0,0
S,4230,16920008,511,0,0
S,4231,16924008,511,0,0
S,4232,16928008,511,0,0
S,4233,16932008,511,0,0
S,4234,16936008,511,0,0
S,4235,16940012,511,0,0
S,4236,16944012,511,0,0
S,4237,16948012,511,0,0
S,4238,16952008,511,0,0
S,4239,16956012,511,0,0
S,4240,16960008,504,0,0
S,4241,16964008,489,0,0
S,4242,16968008,474,0,0
S,4243,16972008,474,0,0
S,4244,16976012,489,0,0
S,4245,16980008,504,0,0
S,4246,16984008,511,0,0
S,4247,16988008,511,0,0
S,4248,16992008,596,0,0
S,4249,16996008,681,0,0
S,4250,17000008,767,0,0
S,4251,17004008,682,0,0
S,4252,17008008,597,0,0
S,4253,17012008,512,0,0
S,4254,17016008,512,0,0
S,4255,17020008,496,0,0
S,4256,17024012,480,0,0
S,4257,17028008,464,0,0
S,4258,17032008,447,0,0
S,4259,17036008,464,0,0
S,4260,17040012,480,0,0
S,4261,17044008,496,0,0
S,4262,17048008,512,0,0
S,4263,17052008,512,0,0
S,4264,17056008,512,0,0
S,4265,17060008,512,0,0
S,4266,17064008,512,0,0
S,4267,17068008,512,0,0
S,4268,17072008,512,0,0
S,4269,17076008,512,0,0
S,4270,17080008,512,0,0
S,4271,17084008,512,0,0
S,4272,17088008,515,0,0
S,4273,17092008,521,0,0
S,4274,17096008,526,0,0
S,4275,17100008,532,0,0
S,4276,17104008,537,0,0
S,4277,17108008,543,0,0
S,4278,17112008,548,0,0
S,4279,17116008,553,0,0
S,4280,17120008,558,0,0
S,4281,17124008,564,0,0
S,4282,17128008,569,0,0
S,4283,17132008,574,0,0
S,4284,17136008,579,0,0
S,4285,17140008,584,0,0
S,4286,17144008,590,0,0
S,4287,17148012,595,0,0
S,4288,17152012,595,0,0
S,4289,17156008,590,0,0
S,4290,17160008,584,0,0
S,4291,17164008,579,0,0
S,4292,17168008,574,0,0
S,4293,17172008,569,0,0
S,4294,17176008,564,0,0
S,4295,17180008,558,0,0
S,4296,17184008,553,0,0
S,4297,17188008,548,0,0
S,4298,17192008,543,0,0
S,4299,17196012,537,0,0
S,4300,17200012,533,0,0
S,4301,17204008,528,0,0
S,4302,17208008,523,0,0
S,4303,17212008,517,0,0
S,4304,17216008,514,0,0
S,4305,17220008,514,0,0
S,4306,17224008,514,0,0
S,4307,17228008,514,0,0
S,4308,17232008,514,0,0
S,4309,17236008,514,0,0
S,4310,17240008,514,0,0
S,4311,17244008,514,0,0
S,4312,17248012,514,0,0
S,4313,17252008,514,0,0
S,4314,17256008,514,0,0
S,4315,17260008,514,0,0
S,4316,17264012,514,0,0
S,4317,17268008,514,0,0
S,4318,17272008,514,0,0
S,4319,17276008,514,0,0
S,4320,17280008,514,0,0
S,4321,17284008,514,0,0
S,4322,17288008,514,0,0
S,4323,17292008,514,0,0
S,4324,17296008,514,0,0
S,4325,17300008,515,0,0
S,4326,17304008,515,0,0
S,4327,17308008,515,0,0
S,4328,17312008,515,0,0
S,4329,17316008,515,0,0
S,4330,17320008,515,0,0
S,4331,17324008,515,0,0
S,4332,17328008,515,0,0
S,4333,17332008,515,0,0
S,4334,17336008,515,0,0
S,4335,17340008,515,0,0
S,4336,17344008,518,0,0
S,4337,17348008,522,0,0
S,4338,17352008,526,0,0
S,4339,17356008,529,0,0
S,4340,17360008,533,0,0
S,4341,17364008,537,0,0
S,4342,17368012,541,0,0
S,4343,17372008,541,0,0
S,4344,17376008,537,0,0
S,4345,17380012,533,0,0
S,4346,17384008,529,0,0
S,4347,17388012,526,0,0
S,4348,17392012,522,0,0
S,4349,17396008,518,0,0
S,4350,17400008,516,0,0
S,4351,17404008,516,0,0
S,4352,17408008,516,0,0
S,4353,17412008,516,0,0
S,4354,17416008,516,0,0
S,4355,17420012,516,0,0
S,4356,17424012,516,0,0
S,4357,17428012,516,0,0
S,4358,17432008,516,0,0
S,4359,17436008,516,0,0
S,4360,17440008,509,0,0
S,4361,17444008,494,0,0
S,4362,17448008,479,0,0
S,4363,17452008,479,0,0
S,4364,17456012,494,0,0
S,4365,17460008,509,0,0
S,4366,17464008,516,0,0
S,4367,17468008,516,0,0
S,4368,17472008,601,0,0
S,4369,17476008,686,0,0
S,4370,17480008,771,0,0
S,4371,17484008,686,0,0
S,4372,17488008,601,0,0
S,4373,17492008,516,0,0
S,4374,17496008,516,0,0
S,4375,17500008,501,0,0
S,4376,17504008,485,0,0
S,4377,17508008,469,0,0
S,4378,17512008,452,0,0
S,4379,17516012,469,0,0
S,4380,17520008,485,0,0
S,4381,17524008,501,0,0
S,4382,17528008,517,0,0
S,4383,17532008,517,0,0
S,4384,17536008,517,0,0
S,4385,17540008,517,0,0
S,4386,17544008,517,0,0
S,4387,17548008,517,0,0
S,4388,17552012,517,0,0
S,4389,17556008,517,0,0
S,4390,17560008,517,0,0
S,4391,17564012,517,0,0
S,4392,17568008,520,0,0
S,4393,17572008,526,0,0
S,4394,17576008,531,0,0
S,4395,17580008,536,0,0
S,4396,17584008,541,0,0
S,4397,17588008,547,0,0
S,4398,17592008,552,0,0
S,4399,17596012,557,0,0
S,4400,17600008,563,0,0
S,4401,17604008,569,0,0
S,4402,17608008,574,0,0
S,4403,17612008,579,0,0
S,4404,17616008,584,0,0
S,4405,17620008,589,0,0
S,4406,17624008,595,0,0
S,4407,17628008,600,0,0
S,4408,17632008,600,0,0
S,4409,17636008,595,0,0
S,4410,17640008,589,0,0
S,4411,17644008,584,0,0
S,4412,17648008,579,0,0
S,4413,17652008,574,0,0
S,4414,17656008,569,0,0
S,4415,17660008,563,0,0
S,4416,17664008,558,0,0
S,4417,17668008,553,0,0
S,4418,17672012,548,0,0
S,4419,17676008,542,0,0
S,4420,17680008,537,0,0
S,4421,17684008,532,0,0
S,4422,17688008,527,0,0
S,4423,17692008,521,0,0
S,4424,17696008,518,0,0
S,4425,17700012,519,0,0
S,4426,17704008,519,0,0
S,4427,17708012,519,0,0
S,4428,17712008,519,0,0
S,4429,17716008,519,0,0
S,4430,17720012,519,0,0
S,4431,17724008,519,0,0
S,4432,17728008,519,0,0
S,4433,17732012,519,0,0
S,4434,17736008,519,0,0
S,4435,17740008,519,0,0
S,4436,17744008,519,0,0
S,4437,17748012,519,0,0
S,4438,17752008,519,0,0
S,4439,17756008,519,0,0
S,4440,17760008,519,0,0
S,4441,17764008,519,0,0
S,4442,17768008,519,0,0
S,4443,17772008,519,0,0
S,4444,17776008,519,0,0
S,4445,17780008,519,0,0
S,4446,17784008,519,0,0
S,4447,17788008,519,0,0
S,4448,17792008,519,0,0
S,4449,17796008,519,0,0
S,4450,17800012,520,0,0
S,4451,17804008,520,0,0
S,4452,17808008,520,0,0
S,4453,17812008,520,0,0
S,4454,17816008,520,0,0
S,4455,17820008,520,0,0
S,4456,17824008,523,0,0
S,4457,17828008,527,0,0
S,4458,17832008,531,0,0
S,4459,17836008,534,0,0
S,4460,17840008,538,0,0
S,4461,17844008,542,0,0
S,4462,17848008,546,0,0
S,4463,17852012,546,0,0
S,4464,17856008,542,0,0
S,4465,17860008,538,0,0
S,4466,17864008,534,0,0
S,4467,17868008,531,0,0
S,4468,17872012,527,0,0
S,4469,17876012,523,0,0
S,4470,17880008,520,0,0
S,4471,17884008,520,0,0
S,4472,17888008,520,0,0
S,4473,17892008,520,0,0
S,4474,17896008,520,0,0
S,4475,17900008,521,0,0
S,4476,17904008,521,0,0
S,4477,17908008,521,0,0
S,4478,17912008,521,0,0
S,4479,17916008,521,0,0
S,4480,17920008,514,0,0
S,4481,17924008,499,0,0
S,4482,17928008,484,0,0
S,4483,17932008,484,0,0
S,4484,17936012,499,0,0
S,4485,17940008,514,0,0
S,4486,17944008,521,0,0
S,4487,17948008,521,0,0
S,4488,17952008,606,0,0
S,4489,17956008,691,0,0
S,4490,17960008,776,0,0
S,4491,17964008,691,0,0
S,4492,17968008,606,0,0
S,4493,17972008,521,0,0
S,4494,17976008,521,0,0
S,4495,17980008,505,0,0
S,4496,17984008,489,0,0
S,4497,17988008,473,0,0
S,4498,17992008,456,0,0
S,4499,17996008,473,0,0
S,4500,18000008,490,0,0
S,4501,18004008,506,0,0
S,4502,18008008,522,0,0
S,4503,18012008,522,0,0
S,4504,18016008,522,0,0
S,4505,18020008,522,0,0
S,4506,18024008,522,0,0
S,4507,18028008,522,0,0
S,4508,18032008,522,0,0
S,4509,18036012,522,0,0
S,4510,18040008,522,0,0
S,4511,18044008,522,0,0
S,4512,18048008,525,0,0
S,4513,18052008,531,0,0
S,4514,18056012,536,0,0
S,4515,18060008,541,0,0
S,4516,18064008,546,0,0
S,4517,18068008,552,0,0
S,4518,18072008,557,0,0
S,4519,18076008,562,0,0
S,4520,18080008,567,0,0
S,4521,18084008,573,0,0
S,4522,18088008,578,0,0
S,4523,18092008,583,0,0
S,4524,18096008,588,0,0
S,4525,18100008,592,0,0
S,4526,18104008,598,0,0
S,4527,18108008,603,0,0
S,4528,18112008,603,0,0
S,4529,18116008,598,0,0
S,4530,18120008,592,0,0
S,4531,18124008,587,0,0
S,4532,18128012,582,0,0
S,4533,18132008,577,0,0
S,4534,18136008,572,0,0
S,4535,18140008,566,0,0
S,4536,18144008,561,0,0
S,4537,18148008,556,0,0
S,4538,18152008,551,0,0
S,4539,18156008,545,0,0
S,4540,18160012,540,0,0
S,4541,18164008,535,0,0
S,4542,18168012,530,0,0
S,4543,18172008,524,0,0
S,4544,18176008,521,0,0
S,4545,18180012,521,0,0
S,4546,18184008,521,0,0
S,4547,18188008,521,0,0
S,4548,18192008,521,0,0
S,4549,18196008,521,0,0
S,4550,18200012,520,0,0
S,4551,18204008,520,0,0
S,4552,18208008,520,0,0
S,4553,18212008,520,0,0
S,4554,18216008,520,0,0
S,4555,18220008,520,0,0
S,4556,18224012,520,0,0
S,4557,18228008,520,0,0
S,4558,18232008,520,0,0
S,4559,18236008,520,0,0
S,4560,18240008,520,0,0
S,4561,18244008,520,0,0
S,4562,18248008,520,0,0
S,4563,18252008,520,0,0
S,4564,18256008,520,0,0
S,4565,18260008,520,0,0
S,4566,18264008,520,0,0
S,4567,18268008,520,0,0
S,4568,18272008,520,0,0
S,4569,18276008,520,0,0
S,4570,18280012,520,0,0
S,4571,18284008,520,0,0
S,4572,18288008,520,0,0
S,4573,18292008,520,0,0
S,4574,18296008,520,0,0
S,4575,18300008,519,0,0
S,4576,18304012,522,0,0
S,4577,18308008,526,0,0
S,4578,18312008,530,0,0
S,4579,18316008,533,0,0
S,4580,18320008,537,0,0
S,4581,18324008,541,0,0
S,4582,18328008,545,0,0
S,4583,18332008,545,0,0
S,4584,18336008,541,0,0
