S,0,100028,524,0,0
S,1,103997,501,0,0
S,2,108027,518,0,0
S,3,112024,506,0,0
S,4,116018,506,0,0
S,5,120013,512,0,0
S,6,123995,505,0,0
S,7,128035,514,0,0
S,8,132017,506,0,0
S,9,135993,529,0,0
S,10,140022,515,0,0
S,11,143970,516,0,0
S,12,148009,515,0,0
S,13,152031,508,0,0
S,14,155972,504,0,0
S,15,160034,512,0,0
S,16,164003,522,0,0
S,17,168019,516,0,0
S,18,172031,518,0,0
S,19,176007,510,0,0
S,20,180031,516,0,0
S,21,183984,529,0,0
S,22,188021,522,0,0
S,23,191962,510,0,0
S,24,195990,511,0,0
S,25,200000,520,0,0
S,26,204028,532,0,0
S,27,207960,518,0,0
S,28,212013,513,0,0
S,29,216034,519,0,0
S,30,219968,512,0,0
S,31,224003,520,0,0
S,32,228030,525,0,0
S,33,232030,519,0,0
S,34,235965,514,0,0
S,35,239968,522,0,0
S,36,243990,505,0,0
S,37,247972,527,0,0
S,38,251979,510,0,0
S,39,256038,504,0,0
S,40,260004,520,0,0
S,41,264013,527,0,0
S,42,267967,519,0,0
S,43,272000,510,0,0
S,44,276013,515,0,0
S,45,280033,519,0,0
S,46,284000,533,0,0
S,47,287967,527,0,0
S,48,291970,519,0,0
S,49,295963,523,0,0
S,garbage,line
S,50,300022,519,0,0
S,51,303990,519,0,0
S,52,308037,527,0,0
S,53,312020,522,0,0
S,54,315984,516,0,0
S,55,320037,517,0,0
S,56,323989,527,0,0
S,57,327965,509,0,0
S,58,332000,523,0,0
S,59,336023,521,0,0
S,60,339973,512,0,0
S,61,343993,527,0,0
S,62,347995,519,0,0
S,63,351996,524,0,0
S,64,356000,506,0,0
S,65,359973,517,0,0
S,66,364035,531,0,0
S,67,368022,533,0,0
S,68,371998,508,0,0
S,69,375964,516,0,0
S,70,380011,525,0,0
S,71,384036,524,0,0
S,72,388036,536,0,0
S,73,392025,514,0,0
S,74,395975,522,0,0
S,75,400013,518,0,0
S,76,404005,537,0,0
S,77,407964,527,0,0
S,78,412018,520,0,0
S,79,415968,511,0,0
S,80,420032,536,0,0
S,81,423964,535,0,0
S,82,428017,533,0,0
S,83,432019,531,0,0
S,84,436012,525,0,0
S,85,440016,524,0,0
S,86,444036,528,0,0
S,87,448009,527,0,0
S,88,452000,536,0,0
S,89,456028,519,0,0
S,90,460012,530,0,0
S,91,464018,537,0,0
S,92,467995,540,0,0
S,93,472036,539,0,0
S,94,475963,529,0,0
S,95,479995,532,0,0
S,96,484026,549,0,0
S,97,487971,557,0,0
S,98,491986,551,0,0
S,99,496036,548,0,0
S,100,500021,551,0,0
S,101,503984,561,0,0
S,102,507995,557,0,0
S,103,512004,559,0,0
S,104,516016,549,0,0
S,105,519982,559,0,0
S,106,524003,562,0,0
S,107,527968,563,0,0
S,108,531960,555,0,0
S,109,536004,567,0,0
S,110,540007,563,0,0
S,111,543997,566,0,0
S,112,547975,541,0,0
S,113,551983,544,0,0
S,114,555972,539,0,0
S,115,560010,548,0,0
S,116,563978,533,0,0
S,117,567970,551,0,0
S,118,571991,543,0,0
S,119,575994,526,0,0
S,120,579985,531,0,0
S,121,583981,535,0,0
S,122,588029,537,0,0
S,123,591961,535,0,0
S,124,596030,541,0,0
S,125,599996,531,0,0
S,126,603984,541,0,0
S,127,608000,535,0,0
S,128,612016,539,0,0
S,129,616004,531,0,0
S,130,620018,539,0,0
S,131,623997,529,0,0
S,132,628028,532,0,0
S,133,632001,522,0,0
S,134,636022,533,0,0
S,135,639998,529,0,0
S,136,644038,523,0,0
S,137,647999,514,0,0
S,138,652011,506,0,0
S,139,655995,489,0,0
S,140,660010,487,0,0
S,141,663991,502,0,0
S,142,667961,524,0,0
S,143,672033,527,0,0
S,144,675985,561,0,0
S,145,680001,611,0,0
S,146,684030,670,0,0
S,147,687964,738,0,0
S,148,691967,785,0,0
S,149,695984,813,0,0
S,150,700001,832,0,0
S,151,704018,822,0,0
S,152,708014,786,0,0
S,153,712015,720,0,0
S,154,715984,668,0,0
S,155,719969,622,0,0
S,156,724038,573,0,0
S,157,727963,535,0,0
S,158,731993,499,0,0
S,159,736030,481,0,0
S,160,739964,480,0,0
S,161,744039,471,0,0
S,162,748002,470,0,0
S,163,751995,475,0,0
S,164,756004,480,0,0
S,165,760006,501,0,0
S,166,764034,492,0,0
S,167,768021,518,0,0
S,168,771990,512,0,0
S,169,776032,520,0,0
S,170,780023,533,0,0
S,171,784023,541,0,0
S,172,787986,541,0,0
S,173,792026,532,0,0
S,174,795988,540,0,0
S,175,800019,534,0,0
S,176,803977,539,0,0
S,177,808015,544,0,0
S,178,812004,532,0,0
S,179,816038,547,0,0
S,180,819979,545,0,0
S,181,824015,558,0,0
S,182,828022,544,0,0
S,183,832037,538,0,0
S,184,835988,541,0,0
S,185,839982,550,0,0
S,186,843960,549,0,0
S,187,848005,555,0,0
S,188,851994,549,0,0
S,189,855991,560,0,0
S,190,859984,553,0,0
S,191,863968,570,0,0
S,192,868025,561,0,0
S,193,872010,557,0,0
S,194,876035,560,0,0
S,195,879981,565,0,0
S,196,883980,581,0,0
S,197,888034,589,0,0
S,198,891992,582,0,0
S,199,895994,587,0,0
S,200,899963,601,0,0
S,201,903983,601,0,0
S,202,907974,603,0,0
S,203,911985,598,0,0
S,204,916019,592,0,0
S,205,920003,614,0,0
S,206,924002,607,0,0
S,207,927968,623,0,0
S,208,932031,616,0,0
S,209,936016,624,0,0
S,210,939981,623,0,0
S,211,943972,625,0,0
S,212,947960,632,0,0
S,213,951973,622,0,0
S,214,955960,623,0,0
S,215,960029,629,0,0
S,216,964038,632,0,0
S,217,968019,629,0,0
S,218,972006,619,0,0
S,219,975971,620,0,0
S,220,980023,610,0,0
S,221,983988,624,0,0
S,222,987992,614,0,0
S,223,991987,620,0,0
S,224,996026,616,0,0
S,225,1000028,597,0,0
S,226,1004031,611,0,0
S,227,1007992,604,0,0
S,228,1012012,589,0,0
S,229,1016002,593,0,0
S,230,1020007,587,0,0
S,231,1023976,580,0,0
S,232,1028011,583,0,0
S,233,1031967,575,0,0
S,234,1035996,571,0,0
S,235,1040013,564,0,0
S,236,1044002,575,0,0
S,237,1048022,571,0,0
S,238,1052012,551,0,0
S,239,1056026,550,0,0
S,240,1060031,555,0,0
S,241,1063995,553,0,0
S,242,1068019,563,0,0
S,243,1072032,546,0,0
S,244,1076038,535,0,0
S,245,1080038,539,0,0
S,246,1084016,546,0,0
S,247,1087984,557,0,0
S,248,1092002,535,0,0
S,249,1096016,534,0,0
S,250,1099991,540,0,0
S,251,1103967,540,0,0
S,252,1108027,551,0,0
S,253,1112006,528,0,0
S,254,1115983,534,0,0
S,255,1119974,534,0,0
S,256,1123995,540,0,0
S,257,1128020,527,0,0
S,258,1132000,539,0,0
S,259,1135976,526,0,0
S,260,1140035,531,0,0
S,261,1143998,529,0,0
S,262,1148019,528,0,0
S,263,1152027,531,0,0
S,264,1155969,531,0,0
S,265,1160019,534,0,0
S,266,1163991,541,0,0
S,267,1168005,536,0,0
S,268,1172013,526,0,0
S,269,1176034,529,0,0
S,270,1180006,532,0,0
S,271,1184038,532,0,0
S,272,1187968,535,0,0
S,273,1191971,533,0,0
S,274,1196001,525,0,0
S,275,1199977,526,0,0
S,276,1204011,536,0,0
S,277,1207968,542,0,0
S,278,1212002,524,0,0
S,279,1216005,523,0,0
S,280,1219991,527,0,0
S,281,1224000,539,0,0
S,282,1228021,519,0,0
S,283,1231970,527,0,0
S,284,1235979,530,0,0
S,285,1240019,522,0,0
S,286,1243984,540,0,0
S,287,1248034,533,0,0
S,288,1251978,521,0,0
S,289,1256013,524,0,0
S,290,1259981,518,0,0
S,291,1263964,528,0,0
S,292,1268039,541,0,0
S,293,1271968,520,0,0
S,294,1275969,535,0,0
S,295,1279974,528,0,0
S,296,1283966,540,0,0
S,297,1287975,533,0,0
S,298,1291998,515,0,0
S,299,1296024,525,0,0
S,300,1299963,535,0,0
S,301,1303978,533,0,0
S,302,1308024,532,0,0
S,303,1311992,539,0,0
S,304,1316021,533,0,0
S,305,1319985,533,0,0
S,306,1324025,545,0,0
S,307,1328037,555,0,0
S,308,1332010,543,0,0
S,309,1336007,551,0,0
S,310,1339970,560,0,0
S,311,1343987,557,0,0
S,312,1347961,549,0,0
S,313,1351985,542,0,0
S,314,1355996,548,0,0
S,315,1360011,557,0,0
S,316,1363960,557,0,0
S,317,1367976,556,0,0
S,318,1371969,543,0,0
S,319,1376032,544,0,0
S,320,1379983,541,0,0
S,321,1383990,544,0,0
S,322,1387967,535,0,0
S,323,1392025,526,0,0
S,324,1395998,528,0,0
S,325,1399961,527,0,0
S,326,1403977,530,0,0
S,327,1407991,536,0,0
S,328,1411982,525,0,0
S,329,1416014,540,0,0
S,330,1420000,531,0,0
S,331,1423968,524,0,0
S,332,1427993,530,0,0
S,333,1431984,522,0,0
S,334,1436010,513,0,0
S,335,1439970,527,0,0
S,336,1443990,520,0,0
S,337,1447985,504,0,0
S,338,1452002,522,0,0
S,339,1455961,511,0,0
S,340,1459964,528,0,0
S,341,1464035,518,0,0
S,342,1468022,512,0,0
S,343,1471961,521,0,0
S,344,1475974,499,0,0
S,345,1479983,504,0,0
S,346,1484003,508,0,0
S,347,1488014,489,0,0
S,348,1491979,476,0,0
S,349,1496022,475,0,0
S,350,1499987,492,0,0
S,351,1504007,507,0,0
S,352,1507981,547,0,0
S,353,1511972,586,0,0
S,354,1516016,649,0,0
S,355,1519998,695,0,0
S,356,1523961,750,0,0
S,357,1528010,799,0,0
S,358,1532019,807,0,0
S,359,1535999,805,0,0
S,360,1540031,780,0,0
S,361,1544017,744,0,0
S,362,1548019,676,0,0
S,363,1551966,618,0,0
S,364,1556004,551,0,0
S,365,1559967,524,0,0
S,366,1563962,511,0,0
S,367,1568019,473,0,0
S,368,1572039,453,0,0
S,369,1576021,440,0,0
S,370,1579987,453,0,0
S,371,1584035,457,0,0
S,372,1588007,454,0,0
S,373,1592006,469,0,0
S,374,1596020,475,0,0
S,375,1599982,491,0,0
S,376,1603989,495,0,0
S,377,1608024,514,0,0
S,378,1612012,506,0,0
S,379,1616015,504,0,0
S,380,1620004,508,0,0
S,381,1624022,515,0,0
S,382,1627961,521,0,0
S,383,1631981,509,0,0
S,384,1635973,516,0,0
S,385,1640034,518,0,0
S,386,1643987,527,0,0
S,387,1647989,523,0,0
S,388,1651999,513,0,0
S,389,1655973,501,0,0
S,390,1660011,520,0,0
S,391,1663973,528,0,0
S,392,1668033,524,0,0
S,393,1672014,523,0,0
S,394,1675981,516,0,0
S,395,1679996,523,0,0
S,396,1684010,526,0,0
S,397,1688033,540,0,0
S,398,1692032,530,0,0
S,399,1696036,527,0,0
S,400,1700023,529,0,0
S,401,1703994,543,0,0
S,402,1708017,554,0,0
S,403,1712012,546,0,0
S,404,1716033,541,0,0
S,405,1719987,562,0,0
S,406,1724025,569,0,0
S,407,1727974,569,0,0
S,408,1731988,566,0,0
S,409,1735970,570,0,0
S,410,1739989,575,0,0
S,411,1743977,584,0,0
S,412,1748028,576,0,0
S,413,1751982,588,0,0
S,414,1756038,582,0,0
S,415,1759988,600,0,0
S,416,1764010,583,0,0
S,417,1767973,600,0,0
S,418,1772002,599,0,0
S,419,1776021,591,0,0
S,420,1780009,601,0,0
S,421,1783971,608,0,0
S,422,1787980,606,0,0
S,423,1792001,595,0,0
S,424,1795985,595,0,0
S,425,1799977,606,0,0
S,426,1803966,610,0,0
S,427,1808039,600,0,0
S,428,1811982,593,0,0
S,429,1815967,590,0,0
S,430,1819969,597,0,0
S,431,1824021,585,0,0
S,432,1828020,579,0,0
S,433,1831981,579,0,0
S,434,1836030,566,0,0
S,435,1840013,570,0,0
S,436,1844024,574,0,0
S,437,1848005,571,0,0
S,438,1852034,553,0,0
S,439,1855996,558,0,0
S,440,1859970,543,0,0
S,441,1864007,557,0,0
S,442,1868003,539,0,0
S,443,1871973,532,0,0
S,444,1876015,538,0,0
S,445,1879975,532,0,0
S,446,1883965,531,0,0
S,447,1887998,528,0,0
S,448,1892020,526,0,0
S,449,1896028,518,0,0
S,450,1899961,520,0,0
S,451,1904019,528,0,0
S,452,1908009,514,0,0
S,453,1912018,508,0,0
S,454,1915991,504,0,0
S,455,1920018,517,0,0
S,456,1923988,519,0,0
S,457,1927982,517,0,0
S,458,1931982,503,0,0
S,459,1935990,499,0,0
S,460,1939976,509,0,0
S,461,1944039,505,0,0
S,462,1948012,510,0,0
S,463,1952016,503,0,0
S,464,1955971,492,0,0
S,465,1959980,500,0,0
S,466,1964000,503,0,0
S,467,1967975,512,0,0
S,468,1971965,512,0,0
S,469,1975960,494,0,0
S,470,1980029,498,0,0
S,471,1983982,489,0,0
S,472,1987982,502,0,0
S,473,1991985,495,0,0
S,474,1995980,487,0,0
S,475,1999994,502,0,0
S,476,2004022,492,0,0
S,477,2008009,498,0,0
S,478,2011977,495,0,0
S,479,2016016,485,0,0
S,480,2020022,502,0,0
S,481,2024004,507,0,0
S,482,2027961,491,0,0
S,483,2031975,485,0,0
S,484,2036037,495,0,0
S,485,2040034,496,0,0
S,486,2043988,493,0,0
S,487,2048006,496,0,0
S,488,2052035,492,0,0
S,489,2056037,490,0,0
S,490,2060000,500,0,0
S,491,2063988,502,0,0
S,492,2068038,508,0,0
S,493,2072037,501,0,0
S,494,2076006,495,0,0
S,495,2079961,502,0,0
S,496,2083973,507,0,0
S,497,2087974,502,0,0
S,498,2091997,485,0,0
S,499,2096023,496,0,0
S,500,2100012,496,0,0
S,501,2104031,510,0,0
S,502,2107976,500,0,0
S,503,2111980,498,0,0
S,504,2116030,496,0,0
S,505,2120024,509,0,0
S,506,2124007,505,0,0
S,507,2128017,502,0,0
S,508,2132000,502,0,0
S,509,2136038,497,0,0
S,510,2139980,507,0,0
S,511,2144020,512,0,0
S,512,2147987,514,0,0
S,513,2152037,520,0,0
S,514,2156031,507,0,0
S,515,2159971,516,0,0
S,516,2163976,520,0,0
S,517,2168007,526,0,0
S,518,2171981,511,0,0
S,519,2176014,513,0,0
S,520,2179982,522,0,0
S,521,2183972,530,0,0
S,522,2187993,525,0,0
S,523,2191982,516,0,0
S,524,2195966,512,0,0
S,525,2200016,523,0,0
S,526,2204003,532,0,0
S,527,2208032,522,0,0
S,528,2211961,514,0,0
S,529,2215975,512,0,0
S,530,2219983,505,0,0
S,531,2224002,511,0,0
S,532,2228023,508,0,0
S,533,2232008,504,0,0
S,534,2236017,498,0,0
S,535,2239981,494,0,0
S,536,2244029,511,0,0
S,537,2247981,511,0,0
S,538,2251970,493,0,0
S,539,2255980,494,0,0
S,540,2259986,497,0,0
S,541,2263986,503,0,0
S,542,2268036,487,0,0
S,543,2272023,500,0,0
S,544,2275976,485,0,0
S,545,2279988,500,0,0
S,546,2283983,497,0,0
S,547,2287984,492,0,0
S,548,2291986,488,0,0
S,549,2295991,492,0,0
S,550,2300038,485,0,0
S,551,2303974,490,0,0
S,552,2307964,484,0,0
S,553,2312010,466,0,0
S,554,2316012,475,0,0
S,555,2319992,466,0,0
S,556,2323998,459,0,0
S,557,2328005,462,0,0
S,558,2331995,449,0,0
S,559,2335970,469,0,0
S,560,2340025,513,0,0
S,561,2343977,554,0,0
S,562,2347982,585,0,0
S,563,2351978,630,0,0
S,564,2355963,699,0,0
S,565,2360013,762,0,0
S,566,2364009,785,0,0
S,567,2367985,789,0,0
S,568,2372019,768,0,0
S,569,2375986,716,0,0
S,570,2379976,674,0,0
S,571,2384037,625,0,0
S,572,2388007,568,0,0
S,573,2392019,518,0,0
S,574,2395976,476,0,0
S,575,2400036,461,0,0
S,576,2403964,443,0,0
S,577,2407994,441,0,0
S,578,2412026,440,0,0
S,579,2416036,420,0,0
S,580,2419976,421,0,0
S,581,2423966,444,0,0
S,582,2428016,457,0,0
S,583,2431980,466,0,0
S,584,2435985,473,0,0
S,585,2439969,474,0,0
S,586,2444026,483,0,0
S,587,2448035,498,0,0
S,588,2451969,481,0,0
S,589,2455998,494,0,0
S,590,2460003,491,0,0
S,591,2463960,502,0,0
S,592,2467988,501,0,0
S,593,2472039,497,0,0
S,594,2476005,496,0,0
S,595,2480027,490,0,0
S,596,2484019,503,0,0
S,597,2488015,501,0,0
S,598,2491966,499,0,0
S,599,2496031,504,0,0
S,600,2499983,500,0,0
S,601,2503983,504,0,0
S,602,2507975,504,0,0
S,603,2511963,503,0,0
S,604,2515975,510,0,0
S,605,2519977,507,0,0
S,606,2524015,525,0,0
S,607,2528039,521,0,0
S,608,2531989,516,0,0
S,609,2536031,511,0,0
S,610,2539997,528,0,0
S,611,2544028,538,0,0
S,612,2548014,525,0,0
S,613,2551988,541,0,0
S,614,2556018,546,0,0
S,615,2560027,546,0,0
S,616,2563991,556,0,0
S,617,2568011,569,0,0
S,618,2571973,561,0,0
S,619,2575987,550,0,0
S,620,2580028,564,0,0
S,621,2583983,571,0,0
S,622,2587989,573,0,0
S,623,2592020,558,0,0
S,624,2595981,578,0,0
S,625,2599990,576,0,0
S,626,2604024,588,0,0
S,627,2608030,587,0,0
S,628,2611965,589,0,0
S,629,2616017,582,0,0
S,630,2619987,584,0,0
S,631,2623973,597,0,0
S,632,2627988,601,0,0
S,633,2632010,585,0,0
S,634,2635988,593,0,0
S,635,2640015,589,0,0
S,636,2643975,587,0,0
S,637,2647972,596,0,0
S,638,2652028,575,0,0
S,639,2656030,582,0,0
S,640,2660038,574,0,0
S,641,2664020,581,0,0
S,642,2667978,566,0,0
S,643,2672002,559,0,0
S,644,2676001,566,0,0
S,645,2679970,561,0,0
S,646,2684007,561,0,0
S,647,2687962,552,0,0
S,648,2691966,549,0,0
S,649,2696010,532,0,0
S,650,2700039,534,0,0
S,651,2704031,541,0,0
S,652,2708002,532,0,0
S,653,2711974,524,0,0
S,654,2715984,523,0,0
S,655,2719976,524,0,0
S,656,2723962,525,0,0
S,657,2727980,532,0,0
S,658,2731997,521,0,0
S,659,2736038,518,0,0
S,660,2739993,513,0,0
S,661,2743961,512,0,0
S,662,2747990,503,0,0
S,663,2752034,503,0,0
S,664,2756011,490,0,0
S,665,2760030,502,0,0
S,666,2764031,513,0,0
S,667,2768003,516,0,0
S,668,2772008,506,0,0
S,669,2776030,493,0,0
S,670,2779986,505,0,0
S,671,2783982,501,0,0
S,672,2788029,508,0,0
S,673,2792030,497,0,0
S,674,2796013,501,0,0
S,675,2800013,516,0,0
S,676,2803961,510,0,0
S,677,2807984,517,0,0
S,678,2812011,498,0,0
S,679,2816012,494,0,0
S,680,2820035,508,0,0
S,681,2824013,515,0,0
S,682,2828022,499,0,0
S,683,2832039,498,0,0
S,684,2835972,487,0,0
S,685,2840031,499,0,0
S,686,2844035,510,0,0
S,687,2848024,503,0,0
S,688,2851963,495,0,0
S,689,2855983,488,0,0
S,690,2860015,503,0,0
S,691,2863982,510,0,0
S,692,2868010,507,0,0
S,693,2872022,500,0,0
S,694,2876032,490,0,0
S,695,2879969,512,0,0
S,696,2883990,506,0,0
S,697,2888020,504,0,0
S,698,2892026,504,0,0
S,699,2896036,485,0,0
S,700,2899978,502,0,0
S,701,2903966,506,0,0
S,702,2907969,508,0,0
S,703,2912037,509,0,0
S,704,2916012,502,0,0
S,705,2919977,493,0,0
S,706,2924026,506,0,0
S,707,2927985,508,0,0
S,708,2931993,503,0,0
S,709,2936025,493,0,0
S,710,2939992,496,0,0
S,711,2943987,515,0,0
S,712,2947969,513,0,0
S,713,2951999,506,0,0
S,714,2956035,496,0,0
S,715,2959989,522,0,0
S,716,2963991,500,0,0
S,717,2967962,515,0,0
S,718,2972019,527,0,0
S,719,2976001,514,0,0
S,720,2980038,523,0,0
S,721,2984007,521,0,0
S,722,2987991,536,0,0
S,723,2992018,517,0,0
S,724,2995983,527,0,0
S,725,2999960,533,0,0
S,726,3003962,532,0,0
S,727,3007966,543,0,0
S,728,3012018,525,0,0
S,729,3015971,528,0,0
S,730,3020000,537,0,0
S,731,3024009,539,0,0
S,732,3027969,542,0,0
S,733,3032025,539,0,0
S,734,3035985,529,0,0
S,735,3039979,530,0,0
S,736,3043984,533,0,0
S,737,3047985,531,0,0
S,738,3052009,531,0,0
S,739,3056035,521,0,0
S,740,3059974,527,0,0
S,741,3064000,526,0,0
S,742,3067996,519,0,0
S,743,3072003,522,0,0
S,744,3076035,507,0,0
S,745,3080019,517,0,0
S,746,3084008,529,0,0
S,747,3087963,511,0,0
S,748,3092006,511,0,0
S,749,3095979,500,0,0
S,750,3100000,510,0,0
S,751,3104035,508,0,0
S,752,3107987,513,0,0
S,753,3111982,506,0,0
S,754,3115994,509,0,0
S,755,3119999,522,0,0
S,756,3124004,518,0,0
S,757,3128039,518,0,0
S,758,3132017,508,0,0
S,759,3136019,504,0,0
S,760,3139978,502,0,0
S,761,3144018,496,0,0
S,762,3147992,499,0,0
S,763,3152031,494,0,0
S,764,3156013,478,0,0
S,765,3160036,471,0,0
S,766,3164029,491,0,0
S,767,3167991,489,0,0
S,768,3172015,508,0,0
S,769,3176006,540,0,0
S,770,3180027,595,0,0
S,771,3184003,660,0,0
S,772,3187967,729,0,0
S,773,3192027,762,0,0
S,774,3196013,790,0,0
S,775,3200036,809,0,0
S,776,3204013,803,0,0
S,777,3208032,758,0,0
S,778,3212031,714,0,0
S,779,3216017,659,0,0
S,780,3220029,607,0,0
S,781,3224020,565,0,0
S,782,3227970,514,0,0
S,783,3232033,478,0,0
S,784,3236039,475,0,0
S,785,3240019,466,0,0
S,786,3243985,448,0,0
S,787,3248024,457,0,0
S,788,3252004,455,0,0
S,789,3256003,465,0,0
S,790,3259961,477,0,0
S,791,3263965,487,0,0
S,792,3268024,499,0,0
S,793,3272006,501,0,0
S,794,3276037,504,0,0
S,795,3280023,502,0,0
S,796,3283977,503,0,0
S,797,3288039,516,0,0
S,798,3291997,507,0,0
S,799,3295996,518,0,0
S,800,3299965,526,0,0
S,801,3303998,528,0,0
S,802,3307991,524,0,0
S,803,3312028,522,0,0
S,804,3315993,528,0,0
S,805,3319982,522,0,0
S,806,3323996,537,0,0
S,807,3328005,536,0,0
S,808,3332027,529,0,0
S,809,3335988,536,0,0
S,810,3339969,530,0,0
S,811,3343969,546,0,0
S,812,3348020,535,0,0
S,813,3351994,533,0,0
S,814,3355979,532,0,0
S,815,3360035,548,0,0
S,816,3363975,547,0,0
S,817,3368017,555,0,0
S,818,3372011,545,0,0
S,819,3376019,560,0,0
S,820,3380013,573,0,0
S,821,3383978,571,0,0
S,822,3388017,582,0,0
S,823,3391960,574,0,0
S,824,3396028,586,0,0
S,825,3399990,582,0,0
S,826,3404031,580,0,0
S,827,3407966,601,0,0
S,828,3411973,590,0,0
S,829,3416024,587,0,0
S,830,3419975,597,0,0
S,831,3423973,599,0,0
S,832,3428015,609,0,0
S,833,3431969,601,0,0
S,834,3436037,618,0,0
S,835,3440015,619,0,0
S,836,3443992,612,0,0
S,837,3447995,613,0,0
S,838,3451975,614,0,0
S,839,3456023,605,0,0
S,840,3459977,621,0,0
S,841,3464028,625,0,0
S,842,3467992,619,0,0
S,843,3472035,614,0,0
S,844,3475991,617,0,0
S,845,3479985,625,0,0
S,846,3483997,628,0,0
S,847,3487978,615,0,0
S,848,3491964,612,0,0
S,849,3496034,598,0,0
S,850,3499993,606,0,0
S,851,3503982,599,0,0
S,852,3507976,604,0,0
S,853,3511972,583,0,0
S,854,3515964,579,0,0
S,855,3520033,585,0,0
S,856,3523993,589,0,0
S,857,3528038,572,0,0
S,858,3531972,568,0,0
S,859,3535961,567,0,0
S,860,3540031,569,0,0
S,861,3544027,563,0,0
S,862,3548029,564,0,0
S,863,3552012,553,0,0
S,864,3556010,559,0,0
S,865,3559967,556,0,0
S,866,3564023,546,0,0
S,867,3568007,537,0,0
S,868,3571990,543,0,0
S,869,3576006,546,0,0
S,870,3580034,543,0,0
S,871,3583960,550,0,0
S,872,3588028,539,0,0
S,873,3591984,527,0,0
S,874,3596007,537,0,0
S,875,3600038,536,0,0
S,876,3603998,543,0,0
S,877,3608034,528,0,0
S,878,3612039,532,0,0
S,879,3615981,525,0,0
S,880,3620020,537,0,0
S,881,3623988,533,0,0
S,882,3627996,531,0,0
S,883,3632032,526,0,0
S,884,3635997,535,0,0
S,885,3639980,532,0,0
S,886,3644039,531,0,0
S,887,3648027,528,0,0
S,888,3652015,522,0,0
S,889,3655991,536,0,0
S,890,3659966,520,0,0
S,891,3664016,530,0,0
S,892,3668012,538,0,0
S,893,3672004,536,0,0
S,894,3675995,526,0,0
S,895,3680002,536,0,0
S,896,3684000,540,0,0
S,897,3687983,540,0,0
S,898,3691972,529,0,0
S,899,3696006,537,0,0
S,900,3700007,533,0,0
S,901,3704011,545,0,0
S,902,3708019,528,0,0
S,903,3712022,535,0,0
S,904,3716036,520,0,0
S,905,3720006,523,0,0
S,906,3724012,539,0,0
S,907,3727997,530,0,0
S,908,3732013,532,0,0
S,909,3735963,522,0,0
S,910,3740028,542,0,0
S,911,3744018,537,0,0
S,912,3748002,529,0,0
S,913,3751974,531,0,0
S,914,3756027,534,0,0
S,915,3760029,529,0,0
S,916,3764026,541,0,0
S,917,3768033,549,0,0
S,918,3772020,537,0,0
S,919,3775991,531,0,0
S,920,3780003,533,0,0
S,921,3783979,545,0,0
S,922,3788035,532,0,0
S,923,3792020,518,0,0
S,924,3796017,533,0,0
S,925,3799986,536,0,0
S,926,3804016,559,0,0
S,927,3808011,549,0,0
S,928,3811967,539,0,0
S,929,3815983,539,0,0
S,930,3819970,555,0,0
S,931,3824025,554,0,0
S,932,3827976,555,0,0
S,933,3832018,555,0,0
S,934,3836012,556,0,0
S,935,3840036,562,0,0
S,936,3844021,567,0,0
S,937,3848014,573,0,0
S,938,3851978,571,0,0
S,939,3855966,549,0,0
S,940,3860011,578,0,0
S,941,3863974,567,0,0
S,942,3868033,571,0,0
S,943,3872013,552,0,0
S,944,3875985,555,0,0
S,945,3880023,557,0,0
S,946,3884002,559,0,0
S,947,3887960,560,0,0
S,948,3892011,551,0,0
S,949,3895988,537,0,0
S,950,3900029,545,0,0
S,951,3904026,553,0,0
S,952,3908001,549,0,0
S,953,3912027,536,0,0
S,954,3916031,533,0,0
S,955,3919963,537,0,0
S,956,3923996,535,0,0
S,957,3928008,531,0,0
S,958,3931988,543,0,0
S,959,3935982,529,0,0
S,960,3939991,535,0,0
S,961,3943972,534,0,0
S,962,3947978,544,0,0
S,963,3951968,542,0,0
S,964,3955981,528,0,0
S,965,3960002,536,0,0
S,966,3964022,532,0,0
S,967,3967976,545,0,0
S,968,3971992,532,0,0
S,969,3975985,515,0,0
S,970,3979993,526,0,0
S,971,3983977,517,0,0
S,972,3987974,507,0,0
S,973,3991981,495,0,0
S,974,3996010,486,0,0
S,975,4000027,500,0,0
S,976,4003974,531,0,0
S,977,4008025,559,0,0
S,978,4011976,593,0,0
S,979,4016028,664,0,0
S,980,4019984,713,0,0
S,981,4024002,769,0,0
S,982,4028012,807,0,0
S,983,4031988,831,0,0
S,984,4035979,826,0,0
S,985,4040012,798,0,0
S,986,4044003,760,0,0
S,987,4047971,688,0,0
S,988,4051961,634,0,0
S,989,4056024,581,0,0
S,990,4060035,547,0,0
S,991,4064000,522,0,0
S,992,4067961,483,0,0
S,993,4072007,494,0,0
S,994,4076035,460,0,0
S,995,4080025,469,0,0
S,996,4084020,480,0,0
S,997,4088021,485,0,0
S,998,4092014,485,0,0
S,999,4096025,474,0,0
S,1000,4099976,499,0,0
S,1001,4104032,523,0,0
S,1002,4108008,517,0,0
S,1003,4111983,516,0,0
S,1004,4116018,510,0,0
S,1005,4119994,537,0,0
S,1006,4124001,539,0,0
S,1007,4127964,530,0,0
S,1008,4131988,530,0,0
S,1009,4136018,529,0,0
S,1010,4140015,527,0,0
S,1011,4143982,537,0,0
S,1012,4148019,539,0,0
S,1013,4151971,537,0,0
S,1014,4156007,540,0,0
S,1015,4160005,538,0,0
S,1016,4164011,541,0,0
S,1017,4168038,546,0,0
S,1018,4172031,536,0,0
S,1019,4175987,532,0,0
S,1020,4180028,552,0,0
S,1021,4183973,550,0,0
S,1022,4188029,553,0,0
S,1023,4191980,553,0,0
S,1024,4196004,544,0,0
S,1025,4200018,561,0,0
S,1026,4204009,567,0,0
S,1027,4208009,566,0,0
S,1028,4212006,567,0,0
S,1029,4216004,561,0,0
S,1030,4219989,561,0,0
S,1031,4224031,580,0,0
S,1032,4227994,578,0,0
S,1033,4232007,587,0,0
S,1034,4236008,586,0,0
S,1035,4239975,589,0,0
S,1036,4243990,601,0,0
S,1037,4247991,610,0,0
S,1038,4251995,607,0,0
S,1039,4256001,604,0,0
S,1040,4259984,612,0,0
S,1041,4264030,615,0,0
S,1042,4268020,617,0,0
S,1043,4272013,618,0,0
S,1044,4275981,614,0,0
S,1045,4280016,622,0,0
S,1046,4283961,619,0,0
S,1047,4287970,615,0,0
S,1048,4292017,609,0,0
S,1049,4296035,615,0,0
S,1050,4299987,629,0,0
S,1051,4303967,632,0,0
S,1052,4308011,615,0,0
S,1053,4311983,605,0,0
S,1054,4315983,615,0,0
S,1055,4319996,615,0,0
S,1056,4324013,605,0,0
S,1057,4328027,615,0,0
S,1058,4332039,601,0,0
S,1059,4336011,603,0,0
S,1060,4339967,598,0,0
S,1061,4344037,601,0,0
S,1062,4348028,592,0,0
S,1063,4351993,575,0,0
S,1064,4356024,574,0,0
S,1065,4360033,572,0,0
S,1066,4364036,581,0,0
S,1067,4367963,564,0,0
S,1068,4371966,552,0,0
S,1069,4376003,560,0,0
S,1070,4379970,564,0,0
S,1071,4384017,567,0,0
S,1072,4388022,560,0,0
S,1073,4391995,536,0,0
S,1074,4396001,536,0,0
S,1075,4400031,539,0,0
S,1076,4403997,544,0,0
S,1077,4408018,527,0,0
S,1078,4412031,533,0,0
S,1079,4415968,531,0,0
S,1080,4420008,526,0,0
S,1081,4424006,535,0,0
S,1082,4428007,539,0,0
S,1083,4432001,525,0,0
S,1084,4435977,529,0,0
S,1085,4440004,532,0,0
S,1086,4444017,531,0,0
S,1087,4447999,529,0,0
S,1088,4451967,518,0,0
S,1089,4455974,526,0,0
S,1090,4459983,519,0,0
S,1091,4464008,522,0,0
S,1092,4468037,528,0,0
S,1093,4472029,514,0,0
S,1094,4476017,519,0,0
S,1095,4479962,526,0,0
S,1096,4484004,524,0,0
S,1097,4487966,523,0,0
S,1098,4492000,522,0,0
S,1099,4495977,519,0,0
S,1100,4499997,509,0,0
S,1101,4503977,515,0,0
S,1102,4507990,529,0,0
S,1103,4511993,518,0,0
S,1104,4516032,501,0,0
S,1105,4520037,509,0,0
S,1106,4523983,522,0,0
S,1107,4528021,514,0,0
S,1108,4532029,517,0,0
S,1109,4536007,513,0,0
S,1110,4540018,520,0,0
S,1111,4544027,514,0,0
S,1112,4547976,523,0,0
S,1113,4552023,525,0,0
S,1114,4555974,507,0,0
S,1115,4559961,524,0,0
S,1116,4563976,526,0,0
S,1117,4568023,522,0,0
S,1118,4572034,512,0,0
S,1119,4576029,504,0,0
S,1120,4580010,510,0,0
S,1121,4583977,524,0,0
S,1122,4588023,524,0,0
S,1123,4591980,520,0,0
S,1124,4596030,517,0,0
S,1125,4600007,521,0,0
S,1126,4603979,517,0,0
S,1127,4607970,512,0,0
S,1128,4612006,515,0,0
S,1129,4616027,516,0,0
S,1130,4620006,519,0,0
S,1131,4623989,514,0,0
S,1132,4628025,520,0,0
S,1133,4632037,510,0,0
S,1134,4636016,520,0,0
S,1135,4640029,518,0,0
S,1136,4643998,530,0,0
S,1137,4648027,533,0,0
S,1138,4651993,528,0,0
S,1139,4655984,536,0,0
S,1140,4660026,527,0,0
S,1141,4664017,527,0,0
S,1142,4667978,546,0,0
S,1143,4671984,544,0,0
S,1144,4675996,544,0,0
S,1145,4679970,542,0,0
S,1146,4683972,548,0,0
S,1147,4687982,544,0,0
S,1148,4691961,529,0,0
S,1149,4696037,531,0,0
S,1150,4700033,541,0,0
S,1151,4704015,537,0,0
S,1152,4708026,548,0,0
S,1153,4711961,520,0,0
S,1154,4715971,523,0,0
S,1155,4719989,535,0,0
S,1156,4723980,526,0,0
S,1157,4727985,519,0,0
S,1158,4732014,511,0,0
S,1159,4735991,511,0,0
S,1160,4739988,527,0,0
S,1161,4743989,523,0,0
S,1162,4748038,520,0,0
S,1163,4752010,507,0,0
S,1164,4755980,512,0,0
S,1165,4760016,511,0,0
S,1166,4763963,508,0,0
S,1167,4767995,509,0,0
S,1168,4771989,507,0,0
S,1169,4776032,510,0,0
S,1170,4780007,507,0,0
S,1171,4784033,514,0,0
S,1172,4788038,521,0,0
S,1173,4791976,499,0,0
S,1174,4796014,494,0,0
S,1175,4800003,510,0,0
S,1176,4803996,509,0,0
S,1177,4808008,501,0,0
S,1178,4811991,492,0,0
S,1179,4815994,479,0,0
S,1180,4819991,479,0,0
S,1181,4824023,471,0,0
S,1182,4827998,473,0,0
S,1183,4831972,461,0,0
S,1184,4835965,477,0,0
S,1185,4840019,516,0,0
S,1186,4844020,558,0,0
S,1187,4847969,615,0,0
S,1188,4851986,662,0,0
S,1189,4855999,714,0,0
S,1190,4860009,769,0,0
S,1191,4863968,797,0,0
S,1192,4867965,793,0,0
S,1193,4872039,769,0,0
S,1194,4876035,728,0,0
S,1195,4880023,681,0,0
S,1196,4884008,632,0,0
S,1197,4887961,582,0,0
S,1198,4892005,530,0,0
S,1199,4896006,501,0,0
S,1200,4900017,476,0,0
S,1201,4904032,454,0,0
S,1202,4908014,454,0,0
S,1203,4912038,441,0,0
S,1204,4916014,431,0,0
S,1205,4919967,446,0,0
S,1206,4923978,463,0,0
S,1207,4928008,466,0,0
S,1208,4932015,475,0,0
S,1209,4935990,478,0,0
S,1210,4939971,491,0,0
S,1211,4944029,495,0,0
S,1212,4947966,501,0,0
S,1213,4951964,494,0,0
S,1214,4955989,500,0,0
S,1215,4959974,491,0,0
S,1216,4963980,508,0,0
S,1217,4967995,512,0,0
S,1218,4971990,503,0,0
S,1219,4976035,499,0,0
S,1220,4979996,507,0,0
S,1221,4983984,504,0,0
S,1222,4987983,503,0,0
S,1223,4991962,501,0,0
S,1224,4995982,502,0,0
S,1225,4999996,514,0,0
S,1226,5003963,509,0,0
S,1227,5008035,520,0,0
S,1228,5012029,501,0,0
S,1229,5015987,506,0,0
S,1230,5019993,517,0,0
S,1231,5023993,531,0,0
S,1232,5027980,521,0,0
S,1233,5031978,509,0,0
S,1234,5036038,526,0,0
S,1235,5039990,531,0,0
S,1236,5044015,532,0,0
S,1237,5048037,534,0,0
S,1238,5052007,534,0,0
S,1239,5056025,541,0,0
S,1240,5059983,552,0,0
S,1241,5064020,547,0,0
S,1242,5067998,572,0,0
S,1243,5071978,557,0,0
S,1244,5075985,557,0,0
S,1245,5080034,571,0,0
S,1246,5084027,575,0,0
S,1247,5088028,590,0,0
S,1248,5092013,581,0,0
S,1249,5095985,573,0,0
S,1250,5100006,580,0,0
S,1251,5104017,586,0,0
S,1252,5108013,587,0,0
S,1253,5111980,590,0,0
S,1254,5116002,581,0,0
S,1255,5120003,600,0,0
S,1256,5123997,594,0,0
S,1257,5127968,592,0,0
S,1258,5131960,593,0,0
S,1259,5136013,573,0,0
S,1260,5140009,582,0,0
S,1261,5144024,594,0,0
S,1262,5148023,587,0,0
S,1263,5152006,579,0,0
S,1264,5156037,577,0,0
S,1265,5159988,573,0,0
S,1266,5164020,576,0,0
S,1267,5168008,564,0,0
S,1268,5172025,552,0,0
S,1269,5175981,565,0,0
S,1270,5179975,553,0,0
S,1271,5183989,554,0,0
S,1272,5188021,561,0,0
S,1273,5192031,550,0,0
S,1274,5195977,535,0,0
S,1275,5199989,535,0,0
S,1276,5204000,539,0,0
S,1277,5208019,528,0,0
S,1278,5212014,528,0,0
S,1279,5215968,521,0,0
S,1280,5220015,522,0,0
S,1281,5223965,527,0,0
S,1282,5227991,523,0,0
S,1283,5232028,522,0,0
S,1284,5235970,516,0,0
S,1285,5239965,498,0,0
S,1286,5243999,516,0,0
S,1287,5247975,501,0,0
S,1288,5251961,492,0,0
S,1289,5255995,502,0,0
S,1290,5260006,496,0,0
S,1291,5263983,501,0,0
S,1292,5268011,507,0,0
S,1293,5271991,490,0,0
S,1294,5275973,487,0,0
S,1295,5279968,498,0,0
S,1296,5284012,507,0,0
S,1297,5287985,500,0,0
S,1298,5292016,482,0,0
S,1299,5295965,485,0,0
S,1300,5300000,492,0,0
S,1301,5303967,509,0,0
S,1302,5307999,501,0,0
S,1303,5312005,495,0,0
S,1304,5316038,495,0,0
S,1305,5320008,490,0,0
S,1306,5324039,499,0,0
S,1307,5327973,497,0,0
S,1308,5332008,483,0,0
S,1309,5336013,487,0,0
S,1310,5339999,495,0,0
S,1311,5344039,489,0,0
S,1312,5347961,499,0,0
S,1313,5352013,493,0,0
S,1314,5355963,493,0,0
S,1315,5359989,487,0,0
S,1316,5364023,496,0,0
S,1317,5368005,503,0,0
S,1318,5371974,493,0,0
S,1319,5375996,482,0,0
S,1320,5379994,493,0,0
S,1321,5383995,504,0,0
S,1322,5387983,493,0,0
S,1323,5391960,491,0,0
S,1324,5395963,502,0,0
S,1325,5400022,491,0,0
S,1326,5403971,495,0,0
S,1327,5407999,488,0,0
S,1328,5412025,485,0,0
S,1329,5415992,496,0,0
S,1330,5419967,491,0,0
S,1331,5423985,489,0,0
S,1332,5427973,489,0,0
S,1333,5431987,490,0,0
S,1334,5435968,493,0,0
S,1335,5440001,489,0,0
S,1336,5443985,503,0,0
S,1337,5448003,495,0,0
S,1338,5451989,495,0,0
S,1339,5456023,496,0,0
S,1340,5459962,502,0,0
S,1341,5463988,501,0,0
S,1342,5467991,503,0,0
S,1343,5472024,503,0,0
S,1344,5475961,493,0,0
S,1345,5480011,508,0,0
S,1346,5483987,516,0,0
S,1347,5487979,520,0,0
S,1348,5492022,510,0,0
S,1349,5496010,510,0,0
S,1350,5499983,518,0,0
S,1351,5503986,518,0,0
S,1352,5508029,521,0,0
S,1353,5512025,521,0,0
S,1354,5516039,519,0,0
S,1355,5519993,515,0,0
S,1356,5524004,524,0,0
S,1357,5527990,511,0,0
S,1358,5531980,522,0,0
S,1359,5536012,511,0,0
S,1360,5539987,519,0,0
S,1361,5544031,513,0,0
S,1362,5547982,516,0,0
S,1363,5552023,512,0,0
S,1364,5555962,511,0,0
S,1365,5559965,499,0,0
S,1366,5563976,515,0,0
S,1367,5568035,506,0,0
S,1368,5572018,495,0,0
S,1369,5576003,499,0,0
S,1370,5580022,497,0,0
S,1371,5584031,501,0,0
S,1372,5588037,495,0,0
S,1373,5591979,495,0,0
S,1374,5595975,491,0,0
S,1375,5599965,494,0,0
S,1376,5603979,493,0,0
S,1377,5608013,494,0,0
S,1378,5611990,494,0,0
S,1379,5615995,497,0,0
S,1380,5619999,493,0,0
S,1381,5623982,506,0,0
S,1382,5628039,496,0,0
S,1383,5631977,483,0,0
S,1384,5636036,490,0,0
S,1385,5639989,482,0,0
S,1386,5644006,490,0,0
S,1387,5648017,485,0,0
S,1388,5652010,463,0,0
S,1389,5655978,455,0,0
S,1390,5660024,470,0,0
S,1391,5664007,463,0,0
S,1392,5667991,474,0,0
S,1393,5671965,496,0,0
S,1394,5675965,527,0,0
S,1395,5679967,580,0,0
S,1396,5684022,643,0,0
S,1397,5688029,683,0,0
S,1398,5691980,751,0,0
S,1399,5696018,770,0,0
S,1400,5699967,786,0,0
S,1401,5704026,788,0,0
S,1402,5707975,748,0,0
S,1403,5712032,685,0,0
S,1404,5716023,636,0,0
S,1405,5719961,577,0,0
S,1406,5724029,537,0,0
S,1407,5728013,492,0,0
S,1408,5731968,463,0,0
S,1409,5736033,449,0,0
S,1410,5739989,439,0,0
S,1411,5744012,438,0,0
S,1412,5748023,440,0,0
S,1413,5751986,434,0,0
S,1414,5755999,436,0,0
S,1415,5759998,453,0,0
S,1416,5763961,479,0,0
S,1417,5767996,477,0,0
S,1418,5772001,481,0,0
S,1419,5776013,483,0,0
S,1420,5779984,493,0,0
S,1421,5783972,502,0,0
S,1422,5788034,500,0,0
S,1423,5791983,495,0,0
S,1424,5796012,490,0,0
S,1425,5799971,495,0,0
S,1426,5804015,508,0,0
S,1427,5808005,509,0,0
S,1428,5812006,505,0,0
S,1429,5816012,500,0,0
S,1430,5819973,500,0,0
S,1431,5823965,514,0,0
S,1432,5827963,513,0,0
S,1433,5831998,497,0,0
S,1434,5836013,511,0,0
S,1435,5839968,515,0,0
S,1436,5843965,528,0,0
S,1437,5847973,512,0,0
S,1438,5851966,508,0,0
S,1439,5856003,521,0,0
S,1440,5859969,513,0,0
S,1441,5863966,526,0,0
S,1442,5867985,526,0,0
S,1443,5871998,524,0,0
S,1444,5876008,521,0,0
S,1445,5879992,538,0,0
S,1446,5884016,554,0,0
S,1447,5887982,553,0,0
S,1448,5891963,551,0,0
S,1449,5895984,549,0,0
S,1450,5899962,568,0,0
S,1451,5903992,571,0,0
S,1452,5907975,576,0,0
S,1453,5912008,559,0,0
S,1454,5916019,573,0,0
S,1455,5920009,572,0,0
S,1456,5923980,589,0,0
S,1457,5927981,589,0,0
S,1458,5932035,579,0,0
S,1459,5935981,588,0,0
S,1460,5940021,600,0,0
S,1461,5944037,603,0,0
S,1462,5947980,603,0,0
S,1463,5951975,591,0,0
S,1464,5955986,591,0,0
S,1465,5959978,593,0,0
S,1466,5963973,605,0,0
S,1467,5968007,609,0,0
S,1468,5972011,598,0,0
S,1469,5975971,593,0,0
S,1470,5979983,588,0,0
S,1471,5984015,600,0,0
S,1472,5988034,592,0,0
S,1473,5992000,574,0,0
S,1474,5996037,571,0,0
S,1475,6000001,580,0,0
S,1476,6004033,578,0,0
S,1477,6008000,588,0,0
S,1478,6011988,569,0,0
S,1479,6016032,557,0,0
S,1480,6019984,561,0,0
S,1481,6024019,574,0,0
S,1482,6028036,554,0,0
S,1483,6031996,555,0,0
S,1484,6036003,548,0,0
S,1485,6040005,555,0,0
S,1486,6043974,550,0,0
S,1487,6047982,540,0,0
S,1488,6051983,537,0,0
S,1489,6055980,530,0,0
S,1490,6059984,537,0,0
S,1491,6064005,533,0,0
S,1492,6068023,541,0,0
S,1493,6072001,522,0,0
S,1494,6075998,522,0,0
S,1495,6080011,518,0,0
S,1496,6083990,525,0,0
S,1497,6088027,522,0,0
S,1498,6091973,516,0,0
S,1499,6095998,518,0,0
S,1500,6099968,513,0,0
S,1501,6104038,514,0,0
S,1502,6107969,524,0,0
S,1503,6111977,509,0,0
S,1504,6116021,505,0,0
S,1505,6120009,520,0,0
S,1506,6123987,522,0,0
S,1507,6128008,499,0,0
S,1508,6131987,508,0,0
S,1509,6135967,513,0,0
S,1510,6140038,517,0,0
S,1511,6143972,513,0,0
S,1512,6148034,524,0,0
S,1513,6152039,505,0,0
S,1514,6155989,507,0,0
S,1515,6159960,513,0,0
S,1516,6163995,517,0,0
S,1517,6168003,520,0,0
S,1518,6171987,516,0,0
S,1519,6175989,508,0,0
S,1520,6179968,521,0,0
S,1521,6183994,513,0,0
S,1522,6188014,515,0,0
S,1523,6191995,521,0,0
S,1524,6196008,510,0,0
S,1525,6199970,520,0,0
S,1526,6203966,516,0,0
S,1527,6207971,515,0,0
S,1528,6212024,511,0,0
S,1529,6216012,511,0,0
S,1530,6219960,513,0,0
S,1531,6223960,519,0,0
S,1532,6227962,522,0,0
S,1533,6232000,520,0,0
S,1534,6236033,512,0,0
S,1535,6240018,520,0,0
S,1536,6243982,526,0,0
S,1537,6248024,513,0,0
S,1538,6251999,505,0,0
S,1539,6256028,522,0,0
S,1540,6259984,525,0,0
S,1541,6264035,522,0,0
S,1542,6267964,523,0,0
S,1543,6272022,511,0,0
S,1544,6275996,507,0,0
S,1545,6279972,523,0,0
S,1546,6284002,517,0,0
S,1547,6288015,531,0,0
S,1548,6292030,518,0,0
S,1549,6296019,523,0,0
S,1550,6300039,539,0,0
S,1551,6304038,545,0,0
S,1552,6307968,532,0,0
S,1553,6311969,537,0,0
S,1554,6316016,525,0,0
S,1555,6320038,535,0,0
S,1556,6324017,547,0,0
S,1557,6327993,553,0,0
S,1558,6331995,538,0,0
S,1559,6335984,545,0,0
S,1560,6340027,548,0,0
S,1561,6343977,546,0,0
S,1562,6347965,552,0,0
S,1563,6352030,557,0,0
S,1564,6355973,546,0,0
S,1565,6359976,553,0,0
S,1566,6363998,559,0,0
S,1567,6367970,547,0,0
S,1568,6371980,552,0,0
S,1569,6376012,550,0,0
S,1570,6380022,553,0,0
S,1571,6383997,554,0,0
S,1572,6387977,540,0,0
S,1573,6392025,532,0,0
S,1574,6396000,527,0,0
S,1575,6399991,529,0,0
S,1576,6404025,532,0,0
S,1577,6407978,540,0,0
S,1578,6412036,536,0,0
S,1579,6415983,521,0,0
S,1580,6419972,533,0,0
S,1581,6423996,524,0,0
S,1582,6428024,527,0,0
S,1583,6432020,517,0,0
S,1584,6436021,511,0,0
S,1585,6439994,525,0,0
S,1586,6444039,530,0,0
S,1587,6448020,525,0,0
S,1588,6451998,519,0,0
S,1589,6455998,514,0,0
S,1590,6459990,524,0,0
S,1591,6464039,525,0,0
S,1592,6467962,527,0,0
S,1593,6472021,511,0,0
S,1594,6476028,514,0,0
S,1595,6480025,513,0,0
S,1596,6483972,514,0,0
S,1597,6487986,503,0,0
S,1598,6492035,486,0,0
S,1599,6495999,479,0,0
S,1600,6499992,485,0,0
S,1601,6503982,520,0,0
S,1602,6507992,561,0,0
S,1603,6512026,602,0,0
S,1604,6516022,630,0,0
S,1605,6520006,703,0,0
S,1606,6524009,764,0,0
S,1607,6527961,799,0,0
S,1608,6531986,822,0,0
S,1609,6535996,815,0,0
S,1610,6539962,788,0,0
S,1611,6544017,749,0,0
S,1612,6547979,683,0,0
S,1613,6552007,625,0,0
S,1614,6556023,574,0,0
S,1615,6560037,548,0,0
S,1616,6563980,505,0,0
S,1617,6567968,490,0,0
S,1618,6572008,476,0,0
S,1619,6575961,461,0,0
S,1620,6580021,469,0,0
S,1621,6583972,467,0,0
S,1622,6588032,479,0,0
S,1623,6592012,486,0,0
S,1624,6595981,502,0,0
S,1625,6599988,507,0,0
S,1626,6603982,524,0,0
S,1627,6608006,521,0,0
S,1628,6611961,521,0,0
S,1629,6616021,531,0,0
S,1630,6620022,532,0,0
S,1631,6623963,543,0,0
S,1632,6627980,538,0,0
S,1633,6631965,542,0,0
S,1634,6635979,543,0,0
S,1635,6640026,528,0,0
S,1636,6643970,550,0,0
S,1637,6648002,540,0,0
S,1638,6651984,536,0,0
S,1639,6655975,532,0,0
S,1640,6659998,543,0,0
S,1641,6663961,537,0,0
S,1642,6667985,539,0,0
S,1643,6672033,536,0,0
S,1644,6675962,542,0,0
S,1645,6680000,552,0,0
S,1646,6683993,558,0,0
S,1647,6687990,556,0,0
S,1648,6691987,548,0,0
S,1649,6696014,542,0,0
S,1650,6699985,562,0,0
S,1651,6703978,568,0,0
S,1652,6708019,571,0,0
S,1653,6711998,576,0,0
S,1654,6716023,568,0,0
S,1655,6719981,576,0,0
S,1656,6724028,571,0,0
S,1657,6728031,591,0,0
S,1658,6732039,586,0,0
S,1659,6736007,584,0,0
S,1660,6739994,599,0,0
S,1661,6743984,598,0,0
S,1662,6748005,603,0,0
S,1663,6752026,617,0,0
S,1664,6755975,611,0,0
S,1665,6759977,620,0,0
S,1666,6763975,626,0,0
S,1667,6768025,626,0,0
S,1668,6772030,621,0,0
S,1669,6776001,634,0,0
S,1670,6780034,626,0,0
S,1671,6784038,636,0,0
S,1672,6788009,629,0,0
S,1673,6792013,624,0,0
S,1674,6796017,609,0,0
S,1675,6799961,616,0,0
S,1676,6803969,641,0,0
S,1677,6807980,637,0,0
S,1678,6811964,619,0,0
S,1679,6816028,618,0,0
S,1680,6820000,623,0,0
S,1681,6823985,615,0,0
S,1682,6828012,627,0,0
S,1683,6832035,602,0,0
S,1684,6835962,599,0,0
S,1685,6840036,587,0,0
S,1686,6844033,613,0,0
S,1687,6848030,599,0,0
S,1688,6852031,600,0,0
S,1689,6856006,578,0,0
S,1690,6860023,587,0,0
S,1691,6864005,586,0,0
S,1692,6868007,581,0,0
S,1693,6871965,583,0,0
S,1694,6875973,579,0,0
S,1695,6879988,575,0,0
S,1696,6883979,566,0,0
S,1697,6888021,569,0,0
S,1698,6891980,563,0,0
S,1699,6896007,554,0,0
S,1700,6899960,556,0,0
S,1701,6904032,558,0,0
S,1702,6907983,546,0,0
S,1703,6912022,545,0,0
S,1704,6915960,550,0,0
S,1705,6920004,537,0,0
S,1706,6923981,547,0,0
S,1707,6928013,548,0,0
S,1708,6931966,529,0,0
S,1709,6936012,534,0,0
S,1710,6940022,528,0,0
S,1711,6943991,538,0,0
S,1712,6947995,531,0,0
S,1713,6951975,528,0,0
S,1714,6956037,528,0,0
S,1715,6959969,533,0,0
S,1716,6964020,538,0,0
S,1717,6967970,523,0,0
S,1718,6972015,541,0,0
S,1719,6976035,528,0,0
S,1720,6980000,527,0,0
S,1721,6984038,534,0,0
S,1722,6988035,538,0,0
S,1723,6992020,525,0,0
S,1724,6996027,526,0,0
S,1725,6999982,530,0,0
S,1726,7003984,540,0,0
S,1727,7008002,531,0,0
S,1728,7011971,533,0,0
S,1729,7016021,530,0,0
S,1730,7019996,532,0,0
S,1731,7024004,544,0,0
S,1732,7028032,535,0,0
S,1733,7031971,523,0,0
S,1734,7035976,530,0,0
S,1735,7040019,533,0,0
S,1736,7043990,536,0,0
S,1737,7048016,536,0,0
S,1738,7052039,544,0,0
S,1739,7055968,529,0,0
S,1740,7059991,535,0,0
S,1741,7063987,535,0,0
S,1742,7068032,543,0,0
S,1743,7072020,529,0,0
S,1744,7075970,523,0,0
S,1745,7079965,525,0,0
S,1746,7083986,540,0,0
S,1747,7088015,539,0,0
S,1748,7091980,520,0,0
S,1749,7095985,524,0,0
S,1750,7099988,537,0,0
S,1751,7104029,544,0,0
S,1752,7107990,529,0,0
S,1753,7112022,529,0,0
S,1754,7115975,536,0,0
S,1755,7119992,533,0,0
S,1756,7124016,539,0,0
S,1757,7127998,538,0,0
S,1758,7131979,529,0,0
S,1759,7136003,537,0,0
S,1760,7139991,545,0,0
S,1761,7143976,541,0,0
S,1762,7147966,550,0,0
S,1763,7152021,553,0,0
S,1764,7156023,548,0,0
S,1765,7159960,559,0,0
S,1766,7163984,556,0,0
S,1767,7168016,567,0,0
S,1768,7172028,550,0,0
S,1769,7176007,566,0,0
S,1770,7180019,557,0,0
S,1771,7183994,560,0,0
S,1772,7187995,557,0,0
S,1773,7191972,554,0,0
S,1774,7196009,551,0,0
S,1775,7200009,553,0,0
S,1776,7203970,558,0,0
S,1777,7208002,561,0,0
S,1778,7212026,555,0,0
S,1779,7216015,544,0,0
S,1780,7220001,555,0,0
S,1781,7224027,544,0,0
S,1782,7228018,540,0,0
S,1783,7232005,532,0,0
S,1784,7236031,539,0,0
S,1785,7239962,529,0,0
S,1786,7244026,532,0,0
S,1787,7247991,545,0,0
S,1788,7251981,541,0,0
S,1789,7256032,536,0,0
S,1790,7260012,522,0,0
S,1791,7263994,535,0,0
S,1792,7268017,537,0,0
S,1793,7272006,527,0,0
S,1794,7275964,515,0,0
S,1795,7280015,526,0,0
S,1796,7284020,522,0,0
S,1797,7287999,523,0,0
S,1798,7292009,537,0,0
S,1799,7296011,526,0,0
S,1800,7300031,517,0,0
S,1801,7304027,519,0,0
S,1802,7307978,525,0,0
S,1803,7312037,508,0,0
S,1804,7316031,505,0,0
S,1805,7320031,493,0,0
S,1806,7323963,493,0,0
S,1807,7327960,491,0,0
S,1808,7332022,483,0,0
S,1809,7336034,492,0,0
S,1810,7339998,529,0,0
S,1811,7344031,578,0,0
S,1812,7348006,631,0,0
S,1813,7351996,684,0,0
S,1814,7356024,738,0,0
S,1815,7359965,792,0,0
S,1816,7364030,816,0,0
S,1817,7368012,832,0,0
S,1818,7372010,809,0,0
S,1819,7375979,757,0,0
S,1820,7380010,706,0,0
S,1821,7383985,660,0,0
S,1822,7387982,602,0,0
S,1823,7391996,549,0,0
S,1824,7396001,511,0,0
S,1825,7400026,486,0,0
S,1826,7404010,470,0,0
S,1827,7407961,469,0,0
S,1828,7412002,463,0,0
S,1829,7416027,449,0,0
S,1830,7419965,465,0,0
S,1831,7424017,479,0,0
S,1832,7428028,484,0,0
S,1833,7432012,486,0,0
S,1834,7435989,495,0,0
S,1835,7439978,497,0,0
S,1836,7444000,518,0,0
S,1837,7448038,518,0,0
S,1838,7451972,530,0,0
S,1839,7455996,523,0,0
S,1840,7459988,520,0,0
S,1841,7464002,527,0,0
S,1842,7468012,536,0,0
S,1843,7472021,531,0,0
S,1844,7476000,521,0,0
S,1845,7479962,524,0,0
S,1846,7484031,521,0,0
S,1847,7488030,527,0,0
S,1848,7492031,524,0,0
S,1849,7495976,520,0,0
S,1850,7499974,540,0,0
S,1851,7504031,524,0,0
S,1852,7507981,534,0,0
S,1853,7511993,534,0,0
S,1854,7515998,535,0,0
S,1855,7520037,548,0,0
S,1856,7524008,536,0,0
S,1857,7527984,541,0,0
S,1858,7531995,544,0,0
S,1859,7535974,545,0,0
S,1860,7540023,549,0,0
S,1861,7543988,554,0,0
S,1862,7548008,567,0,0
S,1863,7552033,553,0,0
S,1864,7555969,557,0,0
S,1865,7560038,577,0,0
S,1866,7564026,587,0,0
S,1867,7567962,584,0,0
S,1868,7572001,572,0,0
S,1869,7575969,574,0,0
S,1870,7580007,582,0,0
S,1871,7584009,588,0,0
S,1872,7588028,594,0,0
S,1873,7592039,602,0,0
S,1874,7596010,597,0,0
S,1875,7600028,598,0,0
S,1876,7603976,604,0,0
S,1877,7607996,602,0,0
S,1878,7612036,612,0,0
S,1879,7615993,593,0,0
S,1880,7619970,611,0,0
S,1881,7623960,606,0,0
S,1882,7628001,606,0,0
S,1883,7632036,598,0,0
S,1884,7635965,610,0,0
S,1885,7640026,607,0,0
S,1886,7643987,626,0,0
S,1887,7648018,600,0,0
S,1888,7651986,591,0,0
S,1889,7655980,597,0,0
S,1890,7660037,598,0,0
S,1891,7664010,594,0,0
S,1892,7668005,578,0,0
S,1893,7671960,590,0,0
S,1894,7676019,579,0,0
S,1895,7680025,579,0,0
S,1896,7684007,573,0,0
S,1897,7688013,575,0,0
S,1898,7691983,558,0,0
S,1899,7695990,556,0,0
S,1900,7700021,555,0,0
S,1901,7703969,564,0,0
S,1902,7708028,548,0,0
S,1903,7711977,540,0,0
S,1904,7715962,544,0,0
S,1905,7720025,540,0,0
S,1906,7723994,540,0,0
S,1907,7728017,534,0,0
S,1908,7731964,533,0,0
S,1909,7735990,519,0,0
S,1910,7740025,528,0,0
S,1911,7743978,539,0,0
S,1912,7748036,526,0,0
S,1913,7752004,512,0,0
S,1914,7756024,506,0,0
S,1915,7760035,517,0,0
S,1916,7764008,512,0,0
S,1917,7768014,507,0,0
S,1918,7771979,505,0,0
S,1919,7775996,501,0,0
S,1920,7780013,516,0,0
S,1921,7783998,506,0,0
S,1922,7788010,522,0,0
S,1923,7791990,502,0,0
S,1924,7796039,505,0,0
S,1925,7799976,512,0,0
S,1926,7804002,513,0,0
S,1927,7807977,514,0,0
S,1928,7812017,498,0,0
S,1929,7815967,488,0,0
S,1930,7819982,505,0,0
S,1931,7824039,500,0,0
S,1932,7827988,505,0,0
S,1933,7832034,508,0,0
S,1934,7835968,499,0,0
S,1935,7840016,501,0,0
S,1936,7843974,502,0,0
S,1937,7847979,505,0,0
S,1938,7852028,500,0,0
S,1939,7856029,490,0,0
S,1940,7860003,506,0,0
S,1941,7864023,501,0,0
S,1942,7867997,507,0,0
S,1943,7871966,498,0,0
S,1944,7876013,505,0,0
S,1945,7880032,508,0,0
S,1946,7883989,507,0,0
S,1947,7887983,505,0,0
S,1948,7892039,502,0,0
S,1949,7896038,506,0,0
S,1950,7899989,509,0,0
S,1951,7904035,507,0,0
S,1952,7908022,507,0,0
S,1953,7912026,509,0,0
S,1954,7916031,488,0,0
S,1955,7920005,505,0,0
S,1956,7924038,501,0,0
S,1957,7928014,513,0,0
S,1958,7932020,497,0,0
S,1959,7936003,498,0,0
S,1960,7939984,496,0,0
S,1961,7943995,508,0,0
S,1962,7948008,512,0,0
S,1963,7951974,512,0,0
S,1964,7955968,494,0,0
S,1965,7960000,504,0,0
S,1966,7964004,536,0,0
S,1967,7968014,518,0,0
S,1968,7972026,509,0,0
S,1969,7975964,512,0,0
S,1970,7979976,499,0,0
S,1971,7984035,531,0,0
S,1972,7988034,523,0,0
S,1973,7991978,510,0,0
S,1974,7996039,525,0,0
S,1975,8000019,521,0,0
S,1976,8004000,524,0,0
S,1977,8008018,533,0,0
S,1978,8012024,527,0,0
S,1979,8016035,521,0,0
S,1980,8020031,528,0,0
S,1981,8023965,524,0,0
S,1982,8027998,521,0,0
S,1983,8031988,529,0,0
S,1984,8035979,528,0,0
S,1985,8039990,526,0,0
S,1986,8044026,528,0,0
S,1987,8047987,519,0,0
S,1988,8052016,514,0,0
S,1989,8056018,505,0,0
S,1990,8060003,523,0,0
S,1991,8063998,511,0,0
S,1992,8067965,514,0,0
S,1993,8071985,504,0,0
S,1994,8076011,492,0,0
S,1995,8080004,515,0,0
S,1996,8084028,504,0,0
S,1997,8088022,499,0,0
S,1998,8092003,498,0,0
S,999,,,,
S,1999,8096007,489,0,0
S,2000,8099978,498,0,0
S,2001,8103961,496,0,0
S,2002,8108027,503,0,0
S,2003,8112023,494,0,0
S,2004,8116016,484,0,0
S,2005,8119984,502,0,0
S,2006,8123972,501,0,0
S,2007,8127991,491,0,0
S,2008,8132013,494,0,0
S,2009,8136032,491,0,0
S,2010,8140021,501,0,0
S,2011,8144016,484,0,0
S,2012,8148029,485,0,0
S,2013,8151998,465,0,0
S,2014,8155990,460,0,0
S,2015,8160023,454,0,0
S,2016,8163976,461,0,0
S,2017,8167994,475,0,0
S,2018,8171984,484,0,0
S,2019,8175984,515,0,0
S,2020,8179963,580,0,0
S,2021,8184020,638,0,0
S,2022,8188016,697,0,0
S,2023,8191997,746,0,0
S,2024,8195979,774,0,0
S,2025,8199995,799,0,0
S,2026,8204028,783,0,0
S,2027,8208010,747,0,0
S,2028,8212005,696,0,0
S,2029,8215982,636,0,0
S,2030,8219964,581,0,0
S,2031,8224008,539,0,0
S,2032,8227990,494,0,0
S,2033,8232032,461,0,0
S,2034,8235996,444,0,0
S,2035,8239984,440,0,0
S,2036,8243974,431,0,0
S,2037,8248026,437,0,0
S,2038,8252036,442,0,0
S,2039,8256030,450,0,0
S,2040,8260009,451,0,0
S,2041,8264001,471,0,0
S,2042,8268016,476,0,0
S,2043,8271993,479,0,0
S,2044,8275996,484,0,0
S,2045,8279962,491,0,0
S,2046,8283980,499,0,0
S,2047,8287986,496,0,0
S,2048,8292033,489,0,0
S,2049,8295967,491,0,0
S,2050,8299988,498,0,0
S,2051,8304001,507,0,0
S,2052,8307977,501,0,0
S,2053,8311962,498,0,0
S,2054,8316014,502,0,0
S,2055,8319970,493,0,0
S,2056,8324001,502,0,0
S,2057,8328012,506,0,0
S,2058,8332005,499,0,0
S,2059,8335992,493,0,0
S,2060,8339972,511,0,0
S,2061,8343978,510,0,0
S,2062,8348032,505,0,0
S,2063,8351968,519,0,0
S,2064,8355994,501,0,0
S,2065,8359972,515,0,0
S,2066,8364033,518,0,0
S,2067,8368002,524,0,0
S,2068,8372014,525,0,0
S,2069,8375988,518,0,0
S,2070,8380005,530,0,0
S,2071,8383986,538,0,0
S,2072,8388013,535,0,0
S,2073,8391986,546,0,0
S,2074,8395979,542,0,0
S,2075,8400005,548,0,0
S,2076,8404018,554,0,0
S,2077,8408033,558,0,0
S,2078,8412014,559,0,0
S,2079,8415961,558,0,0
S,2080,8420037,576,0,0
S,2081,8424008,560,0,0
S,2082,8427960,564,0,0
S,2083,8431990,573,0,0
S,2084,8436007,565,0,0
S,2085,8440009,582,0,0
S,2086,8443990,584,0,0
S,2087,8448015,592,0,0
S,2088,8451974,586,0,0
S,2089,8456034,591,0,0
S,2090,8460000,593,0,0
S,2091,8463961,599,0,0
S,2092,8468034,592,0,0
S,2093,8471980,589,0,0
S,2094,8476023,583,0,0
S,2095,8479975,579,0,0
S,2096,8484038,577,0,0
S,2097,8487972,573,0,0
S,2098,8491980,575,0,0
S,2099,8495998,553,0,0
S,2100,8500039,569,0,0
S,2101,8503993,565,0,0
S,2102,8507961,568,0,0
S,2103,8511998,556,0,0
S,2104,8516016,545,0,0
S,2105,8520005,550,0,0
S,2106,8523981,537,0,0
S,2107,8528008,546,0,0
S,2108,8532037,539,0,0
S,2109,8535988,519,0,0
S,2110,8540020,536,0,0
S,2111,8544031,531,0,0
S,2112,8547994,528,0,0
S,2113,8552031,510,0,0
S,2114,8555981,518,0,0
S,2115,8559995,519,0,0
S,2116,8563968,518,0,0
S,2117,8567973,508,0,0
S,2118,8571974,511,0,0
S,2119,8576030,510,0,0
S,2120,8580034,508,0,0
S,2121,8583979,514,0,0
S,2122,8587970,501,0,0
S,2123,8592032,499,0,0
S,2124,8595983,498,0,0
S,2125,8600020,500,0,0
S,2126,8604028,519,0,0
S,2127,8608001,503,0,0
S,2128,8612015,491,0,0
S,2129,8616005,497,0,0
S,2130,8619961,489,0,0
S,2131,8623993,502,0,0
S,2132,8628032,502,0,0
S,2133,8632021,489,0,0
S,2134,8635988,488,0,0
S,2135,8640023,489,0,0
S,2136,8644038,499,0,0
S,2137,8647995,493,0,0
S,2138,8652021,502,0,0
S,2139,8655989,494,0,0
S,2140,8660006,493,0,0
S,2141,8664034,490,0,0
S,2142,8668014,509,0,0
S,2143,8672014,499,0,0
S,2144,8676008,493,0,0
S,2145,8679987,496,0,0
S,2146,8684028,500,0,0
S,2147,8687992,494,0,0
S,2148,8691992,503,0,0
S,2149,8695979,492,0,0
S,2150,8699973,486,0,0
S,2151,8704009,495,0,0
S,2152,8708002,482,0,0
S,2153,8711963,496,0,0
S,2154,8715975,495,0,0
S,2155,8720023,506,0,0
S,2156,8723987,512,0,0
S,2157,8728031,493,0,0
S,2158,8731982,496,0,0
S,2159,8735981,497,0,0
S,2160,8739993,501,0,0
S,2161,8744015,497,0,0
S,2162,8748037,504,0,0
S,2163,8751982,497,0,0
S,2164,8756019,501,0,0
S,2165,8759996,497,0,0
S,2166,8763962,500,0,0
S,2167,8768017,498,0,0
S,2168,8771983,494,0,0
S,2169,8775961,490,0,0
S,2170,8779975,498,0,0
S,2171,8783997,508,0,0
S,2172,8787977,508,0,0
S,2173,8792024,509,0,0
S,2174,8796017,507,0,0
S,2175,8799989,510,0,0
S,2176,8803967,506,0,0
S,2177,8807980,517,0,0
S,2178,8812006,517,0,0
S,2179,8815967,503,0,0
S,2180,8820027,510,0,0
S,2181,8823976,518,0,0
S,2182,8827999,518,0,0
S,2183,8831997,519,0,0
S,2184,8836031,515,0,0
S,2185,8840032,529,0,0
S,2186,8844009,525,0,0
S,2187,8848032,530,0,0
S,2188,8851971,523,0,0
S,2189,8855962,519,0,0
S,2190,8859972,535,0,0
S,2191,8863987,532,0,0
S,2192,8867963,533,0,0
S,2193,8871997,521,0,0
S,2194,8875966,524,0,0
S,2195,8879968,526,0,0
S,2196,8883969,524,0,0
S,2197,8887997,510,0,0
S,2198,8891968,519,0,0
S,2199,8896023,514,0,0
S,2200,8899962,514,0,0
S,2201,8904028,517,0,0
S,2202,8907999,513,0,0
S,2203,8911975,507,0,0
S,2204,8916006,497,0,0
S,2205,8920032,506,0,0
S,2206,8924026,511,0,0
S,2207,8928016,504,0,0
S,2208,8931971,496,0,0
S,2209,8936012,510,0,0
S,2210,8940023,507,0,0
S,2211,8943960,506,0,0
S,2212,8947966,503,0,0
S,2213,8952033,484,0,0
S,2214,8955987,490,0,0
S,2215,8959987,501,0,0
S,2216,8964037,514,0,0
S,2217,8967984,491,0,0
S,2218,8972022,492,0,0
S,2219,8976015,502,0,0
S,2220,8980006,493,0,0
S,2221,8984025,487,0,0
S,2222,8988028,482,0,0
S,2223,8992017,463,0,0
S,2224,8995971,460,0,0
S,2225,9000005,479,0,0
S,2226,9004021,504,0,0
S,2227,9008011,524,0,0
S,2228,9011992,580,0,0
S,2229,9016008,613,0,0
S,2230,9019983,682,0,0
S,2231,9023999,763,0,0
S,2232,9028021,781,0,0
S,2233,9031996,804,0,0
S,2234,9035983,788,0,0
S,2235,9039989,768,0,0
S,2236,9044009,724,0,0
S,2237,9048009,669,0,0
S,2238,9052006,614,0,0
S,2239,9056026,569,0,0
S,2240,9059997,527,0,0
S,2241,9064019,504,0,0
S,2242,9068025,467,0,0
S,2243,9072014,459,0,0
S,2244,9075989,444,0,0
S,2245,9079997,452,0,0
S,2246,9083969,448,0,0
S,2247,9088025,455,0,0
S,2248,9092004,468,0,0
S,2249,9096004,472,0,0
S,2250,9100006,483,0,0
S,2251,9104013,491,0,0
S,2252,9108002,500,0,0
S,2253,9112024,503,0,0
S,2254,9116036,506,0,0
S,2255,9120003,505,0,0
S,2256,9123993,512,0,0
S,2257,9128022,516,0,0
S,2258,9132019,503,0,0
S,2259,9136012,514,0,0
S,2260,9139991,514,0,0
S,2261,9144018,518,0,0
S,2262,9148027,504,0,0
S,2263,9152033,504,0,0
S,2264,9155985,507,0,0
S,2265,9160037,515,0,0
S,2266,9163992,518,0,0
S,2267,9167983,527,0,0
S,2268,9172004,522,0,0
S,2269,9175990,520,0,0
S,2270,9180027,515,0,0
S,2271,9184012,543,0,0
S,2272,9188013,533,0,0
S,2273,9191975,536,0,0
S,2274,9196019,530,0,0
S,2275,9200025,541,0,0
S,2276,9204033,553,0,0
S,2277,9207971,552,0,0
S,2278,9212022,554,0,0
S,2279,9216025,550,0,0
S,2280,9220015,571,0,0
S,2281,9223984,556,0,0
S,2282,9228028,566,0,0
S,2283,9232025,574,0,0
S,2284,9236028,569,0,0
S,2285,9239963,576,0,0
S,2286,9243968,576,0,0
S,2287,9248012,596,0,0
S,2288,9252024,576,0,0
S,2289,9255961,593,0,0
S,2290,9259977,598,0,0
S,2291,9264022,610,0,0
S,2292,9268008,614,0,0
S,2293,9271985,599,0,0
S,2294,9275963,599,0,0
S,2295,9280001,608,0,0
S,2296,9283977,605,0,0
S,2297,9287983,619,0,0
S,2298,9292019,607,0,0
S,2299,9296024,609,0,0
S,2300,9299996,605,0,0
S,2301,9303988,616,0,0
S,2302,9307969,609,0,0
S,2303,9311981,605,0,0
S,2304,9315960,596,0,0
S,2305,9319973,610,0,0
S,2306,9324013,602,0,0
S,2307,9328022,586,0,0
S,2308,9331987,597,0,0
S,2309,9335999,586,0,0
S,2310,9340031,584,0,0
S,2311,9343994,605,0,0
S,2312,9347967,584,0,0
S,2313,9351966,567,0,0
S,2314,9356003,566,0,0
S,2315,9360024,573,0,0
S,2316,9364025,570,0,0
S,2317,9368003,574,0,0
S,2318,9372001,564,0,0
S,2319,9375968,548,0,0
S,2320,9380001,554,0,0
S,2321,9384007,559,0,0
S,2322,9388019,548,0,0
S,2323,9391985,540,0,0
S,2324,9395965,544,0,0
S,2325,9399996,543,0,0
S,2326,9404027,534,0,0
S,2327,9408034,536,0,0
S,2328,9412039,529,0,0
S,2329,9415979,528,0,0
S,2330,9420011,527,0,0
S,2331,9424017,543,0,0
S,2332,9428033,526,0,0
S,2333,9431989,519,0,0
S,2334,9436013,525,0,0
S,2335,9439964,513,0,0
S,2336,9444026,524,0,0
S,2337,9447978,532,0,0
S,2338,9451980,515,0,0
S,2339,9455981,516,0,0
S,2340,9459983,531,0,0
S,2341,9463989,532,0,0
S,2342,9467969,528,0,0
S,2343,9471970,523,0,0
S,2344,9476011,516,0,0
S,2345,9479968,526,0,0
S,2346,9484007,527,0,0
S,2347,9487972,542,0,0
S,2348,9492023,525,0,0
S,2349,9496017,518,0,0
S,2350,9500012,524,0,0
S,2351,9503962,529,0,0
S,2352,9508032,519,0,0
S,2353,9512016,517,0,0
S,2354,9515984,530,0,0
S,2355,9519982,517,0,0
S,2356,9524030,526,0,0
S,2357,9528034,534,0,0
S,2358,9532022,532,0,0
S,2359,9536032,515,0,0
S,2360,9539965,535,0,0
S,2361,9544036,528,0,0
S,2362,9547984,539,0,0
S,2363,9551984,527,0,0
S,2364,9556016,520,0,0
S,2365,9560000,531,0,0
S,2366,9563979,534,0,0
S,2367,9568026,525,0,0
S,2368,9571993,537,0,0
S,2369,9576029,521,0,0
S,2370,9579991,534,0,0
S,2371,9584036,529,0,0
S,2372,9587977,520,0,0
S,2373,9592019,519,0,0
S,2374,9596030,524,0,0
S,2375,9600013,533,0,0
S,2376,9604012,544,0,0
S,2377,9607960,533,0,0
S,2378,9611981,527,0,0
S,2379,9615990,520,0,0
S,2380,9619996,533,0,0
S,2381,9624038,540,0,0
S,2382,9628023,525,0,0
S,2383,9632014,543,0,0
S,2384,9636032,542,0,0
S,2385,9640026,555,0,0
S,2386,9643974,542,0,0
S,2387,9648019,548,0,0
S,2388,9652029,545,0,0
S,2389,9656029,537,0,0
S,2390,9659989,547,0,0
S,2391,9664001,552,0,0
S,2392,9667994,561,0,0
S,2393,9671961,557,0,0
S,2394,9675984,562,0,0
S,2395,9680024,557,0,0
S,2396,9683963,556,0,0
S,2397,9687984,565,0,0
S,2398,9691960,559,0,0
S,2399,9696012,559,0,0
S,2400,9700016,566,0,0
S,2401,9704012,558,0,0
S,2402,9708017,563,0,0
S,2403,9711977,545,0,0
S,2404,9716008,548,0,0
S,2405,9720014,554,0,0
S,2406,9723986,551,0,0
S,2407,9727996,550,0,0
S,2408,9732019,533,0,0
S,2409,9735976,534,0,0
S,2410,9740019,541,0,0
S,2411,9744023,536,0,0
S,2412,9748032,535,0,0
S,2413,9752005,548,0,0
S,2414,9755975,533,0,0
S,2415,9759964,530,0,0
S,2416,9764012,532,0,0
S,2417,9767976,544,0,0
S,2418,9771962,513,0,0
S,2419,9776019,526,0,0
S,2420,9779966,536,0,0
S,2421,9784028,533,0,0
S,2422,9788016,537,0,0
S,2423,9792028,522,0,0
S,2424,9795982,527,0,0
S,2425,9800034,530,0,0
S,2426,9803975,532,0,0
S,2427,9807965,528,0,0
S,2428,9812004,517,0,0
S,2429,9816036,514,0,0
S,2430,9820001,501,0,0
S,2431,9823994,496,0,0
S,2432,9827961,493,0,0
S,2433,9832028,493,0,0
S,2434,9835986,501,0,0
S,2435,9839974,531,0,0
S,2436,9844025,580,0,0
S,2437,9847989,640,0,0
S,2438,9852019,687,0,0
S,2439,9856025,743,0,0
S,2440,9860015,814,0,0
S,2441,9863994,835,0,0
S,2442,9867991,830,0,0
S,2443,9871980,801,0,0
S,2444,9875994,771,0,0
S,2445,9879983,709,0,0
S,2446,9883962,668,0,0
S,2447,9887961,610,0,0
S,2448,9892006,565,0,0
S,2449,9896006,516,0,0
S,2450,9899992,505,0,0
S,2451,9904015,475,0,0
S,2452,9907970,473,0,0
S,2453,9912023,472,0,0
S,2454,9915999,469,0,0
S,2455,9919990,464,0,0
S,2456,9924006,492,0,0
S,2457,9927996,499,0,0
S,2458,9931962,500,0,0
S,2459,9936009,503,0,0
S,2460,9940002,517,0,0
S,2461,9943994,525,0,0
S,2462,9948028,537,0,0
S,2463,9951987,531,0,0
S,2464,9955995,535,0,0
S,2465,9959983,538,0,0
S,2466,9963965,531,0,0
S,2467,9968010,538,0,0
S,2468,9971985,546,0,0
S,2469,9976018,525,0,0
S,2470,9979995,539,0,0
S,2471,9984007,537,0,0
S,2472,9988004,536,0,0
S,2473,9991997,538,0,0
S,2474,9995974,542,0,0
S,2475,10000027,547,0,0
S,2476,10003975,551,0,0
S,2477,10007973,554,0,0
S,2478,10012029,535,0,0
S,2479,10016006,550,0,0
S,2480,10019996,554,0,0
S,2481,10024017,557,0,0
S,2482,10028014,559,0,0
S,2483,10032000,552,0,0
S,2484,10036037,565,0,0
S,2485,10039987,561,0,0
S,2486,10044020,564,0,0
S,2487,10048014,575,0,0
S,2488,10051981,570,0,0
S,2489,10055967,575,0,0
S,2490,10060006,592,0,0
S,2491,10063970,591,0,0
S,2492,10068036,594,0,0
S,2493,10072021,606,0,0
S,2494,10076000,586,0,0
S,2495,10080014,605,0,0
S,2496,10084013,617,0,0
S,2497,10088009,621,0,0
S,2498,10092005,623,0,0
S,2499,10095990,607,0,0
S,2500,10100006,1023,1,0
S,2501,10104028,1023,1,0
S,2502,10108015,1023,1,0
S,2503,10111991,1023,1,0
S,2504,10115990,1023,1,0
S,2505,10119963,1023,1,0
S,2506,10124033,1023,1,0
S,2507,10128005,1023,1,0
S,2508,10131980,1023,1,0
S,2509,10136020,1023,1,0
S,2510,10139977,1023,1,0
S,2511,10143961,1023,1,0
S,2512,10147968,1023,1,0
S,2513,10152029,1023,1,0
S,2514,10156032,1023,1,0
S,2515,10159969,1023,1,0
S,2516,10164035,1023,1,0
S,2517,10168033,1023,1,0
S,2518,10172014,1023,1,0
S,2519,10176026,1023,1,0
S,2520,10180034,1023,1,0
S,2521,10184010,1023,1,0
S,2522,10188012,1023,1,0
S,2523,10192008,1023,1,0
S,2524,10196039,1023,1,0
S,2525,10200014,1023,1,0
S,2526,10203976,1023,1,0
S,2527,10207996,1023,1,0
S,2528,10212009,1023,1,0
S,2529,10215968,1023,1,0
S,2530,10219983,1023,1,0
S,2531,10224039,1023,1,0
S,2532,10228030,1023,1,0
S,2533,10231979,1023,1,0
S,2534,10236015,1023,1,0
S,2535,10240019,1023,1,0
S,2536,10243992,1023,1,0
S,2537,10247996,1023,1,0
S,2538,10251994,1023,1,0
S,2539,10255982,1023,1,0
S,2540,10260011,1023,1,0
S,2541,10264029,1023,1,0
S,2542,10267989,1023,1,0
S,2543,10271987,1023,1,0
S,2544,10275993,1023,1,0
S,2545,10280015,1023,1,0
S,2546,10283981,1023,1,0
S,2547,10287976,1023,1,0
S,2548,10292039,1023,1,0
S,2549,10295984,1023,1,0
S,2550,10299969,1023,1,0
S,2551,10303992,1023,1,0
S,2552,10308013,1023,1,0
S,2553,10312020,1023,1,0
S,2554,10315962,1023,1,0
S,2555,10320020,1023,1,0
S,2556,10323999,1023,1,0
S,2557,10328018,1023,1,0
S,2558,10332019,1023,1,0
S,2559,10335961,1023,1,0
S,2560,10340031,1023,1,0
S,2561,10344007,1023,1,0
S,2562,10348038,1023,1,0
S,2563,10351987,1023,1,0
S,2564,10356019,1023,1,0
S,2565,10360006,1023,1,0
S,2566,10364021,1023,1,0
S,2567,10368029,1023,1,0
S,2568,10371998,1023,1,0
S,2569,10376019,1023,1,0
S,2570,10380037,1023,1,0
S,2571,10384029,1023,1,0
S,2572,10388032,1023,1,0
S,2573,10391969,1023,1,0
S,2574,10395980,1023,1,0
S,2575,10399992,1023,1,0
S,2576,10404016,1023,1,0
S,2577,10408009,1023,1,0
S,2578,10412037,1023,1,0
S,2579,10415985,1023,1,0
S,2580,10419990,1023,1,0
S,2581,10423960,1023,1,0
S,2582,10427971,1023,1,0
S,2583,10432006,1023,1,0
S,2584,10435964,1023,1,0
S,2585,10440019,1023,1,0
S,2586,10444002,1023,1,0
S,2587,10448035,1023,1,0
S,2588,10451964,1023,1,0
S,2589,10455989,1023,1,0
S,2590,10459970,1023,1,0
S,2591,10463999,1023,1,0
S,2592,10468031,1023,1,0
S,2593,10471976,1023,1,0
S,2594,10476016,1023,1,0
S,2595,10480010,1023,1,0
S,2596,10483977,1023,1,0
S,2597,10488009,1023,1,0
S,2598,10492011,1023,1,0
S,2599,10495963,1023,1,0
S,2600,10499995,1023,1,0
S,2601,10503967,1023,1,0
S,2602,10508026,1023,1,0
S,2603,10512017,1023,1,0
S,2604,10515978,1023,1,0
S,2605,10520012,1023,1,0
S,2606,10523965,1023,1,0
S,2607,10528014,1023,1,0
S,2608,10531998,1023,1,0
S,2609,10535980,1023,1,0
S,2610,10539987,1023,1,0
S,2611,10543968,1023,1,0
S,2612,10547989,1023,1,0
S,2613,10551980,1023,1,0
S,2614,10555992,1023,1,0
S,2615,10560015,1023,1,0
S,2616,10563990,1023,1,0
S,2617,10568033,1023,1,0
S,2618,10572036,1023,1,0
S,2619,10575961,1023,1,0
S,2620,10579988,1023,1,0
S,2621,10583964,1023,1,0
S,2622,10588038,1023,1,0
S,2623,10591988,1023,1,0
S,2624,10596003,1023,1,0
S,2625,10600030,1023,1,0
S,2626,10604024,1023,1,0
S,2627,10608031,1023,1,0
S,2628,10612032,1023,1,0
S,2629,10616008,1023,1,0
S,2630,10620038,1023,1,0
S,2631,10624016,1023,1,0
S,2632,10628032,1023,1,0
S,2633,10632009,1023,1,0
S,2634,10635961,1023,1,0
S,2635,10639967,1023,1,0
S,2636,10644006,1023,1,0
S,2637,10648028,1023,1,0
S,2638,10652000,1023,1,0
S,2639,10655988,1023,1,0
S,2640,10660027,1023,1,0
S,2641,10664038,1023,1,0
S,2642,10667984,1023,1,0
S,2643,10671975,1023,1,0
S,2644,10675966,1023,1,0
S,2645,10680027,1023,1,0
S,2646,10683993,1023,1,0
S,2647,10687970,1023,1,0
S,2648,10692011,1023,1,0
S,2649,10695962,1023,1,0
S,2650,10700003,1023,1,0
S,2651,10704029,1023,1,0
S,2652,10708016,1023,1,0
S,2653,10711976,1023,1,0
S,2654,10715982,1023,1,0
S,2655,10720023,1023,1,0
S,2656,10724028,1023,1,0
S,2657,10728030,1023,1,0
S,2658,10731981,1023,1,0
S,2659,10736008,1023,1,0
S,2660,10740004,1023,1,0
S,2661,10744039,1023,1,0
S,2662,10747962,1023,1,0
S,2663,10752008,1023,1,0
S,2664,10755992,1023,1,0
S,2665,10760007,1023,1,0
S,2666,10763990,1023,1,0
S,2667,10768012,1023,1,0
S,2668,10772034,1023,1,0
S,2669,10776008,1023,1,0
S,2670,10779985,1023,1,0
S,2671,10784037,1023,1,0
S,2672,10788003,1023,1,0
S,2673,10792022,1023,1,0
S,2674,10795991,1023,1,0
S,2675,10799981,1023,1,0
S,2676,10804018,1023,1,0
S,2677,10808029,1023,1,0
S,2678,10812021,1023,1,0
S,2679,10815975,1023,1,0
S,2680,10819989,1023,1,0
S,2681,10824012,1023,1,0
S,2682,10828008,1023,1,0
S,2683,10832016,1023,1,0
S,2684,10836010,1023,1,0
S,2685,10840016,1023,1,0
S,2686,10844005,1023,1,0
S,2687,10847995,1023,1,0
S,2688,10852037,1023,1,0
S,2689,10855978,1023,1,0
S,2690,10860007,1023,1,0
S,2691,10864027,1023,1,0
S,2692,10867985,1023,1,0
S,2693,10871982,1023,1,0
S,2694,10875973,1023,1,0
S,2695,10880012,1023,1,0
S,2696,10883973,1023,1,0
S,2697,10887994,1023,1,0
S,2698,10892038,1023,1,0
S,2699,10896008,1023,1,0
S,2700,10899973,1023,1,0
S,2701,10904010,1023,1,0
S,2702,10908028,1023,1,0
S,2703,10912003,1023,1,0
S,2704,10916039,1023,1,0
S,2705,10919998,1023,1,0
S,2706,10924002,1023,1,0
S,2707,10927963,1023,1,0
S,2708,10932023,1023,1,0
S,2709,10935973,1023,1,0
S,2710,10940036,1023,1,0
S,2711,10943992,1023,1,0
S,2712,10947969,1023,1,0
S,2713,10952029,1023,1,0
S,2714,10956031,1023,1,0
S,2715,10959984,1023,1,0
S,2716,10963997,1023,1,0
S,2717,10967982,1023,1,0
S,2718,10972016,1023,1,0
S,2719,10976003,1023,1,0
S,2720,10979998,1023,1,0
S,2721,10984003,1023,1,0
S,2722,10988019,1023,1,0
S,2723,10991983,1023,1,0
S,2724,10996010,1023,1,0
S,2725,10999977,1023,1,0
S,2726,11004005,1023,1,0
S,2727,11007983,1023,1,0
S,2728,11012035,1023,1,0
S,2729,11015987,1023,1,0
S,2730,11019962,1023,1,0
S,2731,11024017,1023,1,0
S,2732,11028033,1023,1,0
S,2733,11031972,1023,1,0
S,2734,11036031,1023,1,0
S,2735,11040038,1023,1,0
S,2736,11044027,1023,1,0
S,2737,11048018,1023,1,0
S,2738,11052021,1023,1,0
S,2739,11056024,1023,1,0
S,2740,11060034,1023,1,0
S,2741,11063999,1023,1,0
S,2742,11068003,1023,1,0
S,2743,11071990,1023,1,0
S,2744,11075988,1023,1,0
S,2745,11079997,1023,1,0
S,2746,11084015,1023,1,0
S,2747,11087977,1023,1,0
S,2748,11092029,1023,1,0
S,2749,11095999,1023,1,0
S,2750,11100023,1023,1,0
S,2751,11104023,1023,1,0
S,2752,11107979,1023,1,0
S,2753,11111979,1023,1,0
S,2754,11116030,1023,1,0
S,2755,11119988,1023,1,0
S,2756,11123996,1023,1,0
S,2757,11127980,1023,1,0
S,2758,11132022,1023,1,0
S,2759,11135978,1023,1,0
S,2760,11140018,1023,1,0
S,2761,11143989,1023,1,0
S,2762,11147998,1023,1,0
S,2763,11151964,1023,1,0
S,2764,11155977,1023,1,0
S,2765,11160025,1023,1,0
S,2766,11163970,1023,1,0
S,2767,11168037,1023,1,0
S,2768,11172007,1023,1,0
S,2769,11176034,1023,1,0
S,2770,11179980,1023,1,0
S,2771,11183967,1023,1,0
S,2772,11187980,1023,1,0
S,2773,11192033,1023,1,0
S,2774,11195962,1023,1,0
S,2775,11199966,1023,1,0
S,2776,11203962,1023,1,0
S,2777,11207995,1023,1,0
S,2778,11211989,1023,1,0
S,2779,11215979,1023,1,0
S,2780,11219976,1023,1,0
S,2781,11224027,1023,1,0
S,2782,11227970,1023,1,0
S,2783,11231987,1023,1,0
S,2784,11235995,1023,1,0
S,2785,11239962,1023,1,0
S,2786,11243969,1023,1,0
S,2787,11248008,1023,1,0
S,2788,11252019,1023,1,0
S,2789,11255962,1023,1,0
S,2790,11260000,1023,1,0
S,2791,11264034,1023,1,0
S,2792,11268027,1023,1,0
S,2793,11272005,1023,1,0
S,2794,11275994,1023,1,0
S,2795,11280021,1023,1,0
S,2796,11283991,1023,1,0
S,2797,11288009,1023,1,0
S,2798,11291990,1023,1,0
S,2799,11295971,1023,1,0
S,2800,11299979,1023,1,0
S,2801,11304004,1023,1,0
S,2802,11308014,1023,1,0
S,2803,11311985,1023,1,0
S,2804,11315994,1023,1,0
S,2805,11319997,1023,1,0
S,2806,11323970,1023,1,0
S,2807,11328025,1023,1,0
S,2808,11331979,1023,1,0
S,2809,11336006,1023,1,0
S,2810,11339961,1023,1,0
S,2811,11344000,1023,1,0
S,2812,11348024,1023,1,0
S,2813,11351973,1023,1,0
S,2814,11355998,1023,1,0
S,2815,11360010,1023,1,0
S,2816,11363972,1023,1,0
S,2817,11368007,1023,1,0
S,2818,11372009,1023,1,0
S,2819,11375980,1023,1,0
S,2820,11380029,1023,1,0
S,2821,11384018,1023,1,0
S,2822,11387989,1023,1,0
S,2823,11391961,1023,1,0
S,2824,11396018,1023,1,0
S,2825,11399979,1023,1,0
S,2826,11404018,1023,1,0
S,2827,11408012,1023,1,0
S,2828,11411960,1023,1,0
S,2829,11416018,1023,1,0
S,2830,11420030,1023,1,0
S,2831,11423975,1023,1,0
S,2832,11428016,1023,1,0
S,2833,11431987,1023,1,0
S,2834,11436003,1023,1,0
S,2835,11439973,1023,1,0
S,2836,11443966,1023,1,0
S,2837,11447983,1023,1,0
S,2838,11452031,1023,1,0
S,2839,11455969,1023,1,0
S,2840,11460012,1023,1,0
S,2841,11464038,1023,1,0
S,2842,11467990,1023,1,0
S,2843,11472027,1023,1,0
S,2844,11476020,1023,1,0
S,2845,11479983,1023,1,0
S,2846,11484033,1023,1,0
S,2847,11488039,1023,1,0
S,2848,11492016,1023,1,0
S,2849,11495993,1023,1,0
S,2850,11499964,1023,1,0
S,2851,11503968,1023,1,0
S,2852,11507971,1023,1,0
S,2853,11511968,1023,1,0
S,2854,11515985,1023,1,0
S,2855,11520027,1023,1,0
S,2856,11523963,1023,1,0
S,2857,11527960,1023,1,0
S,2858,11532024,1023,1,0
S,2859,11536009,1023,1,0
S,2860,11539993,1023,1,0
S,2861,11544018,1023,1,0
S,2862,11547991,1023,1,0
S,2863,11551966,1023,1,0
S,2864,11555993,1023,1,0
S,2865,11560030,1023,1,0
S,2866,11563987,1023,1,0
S,2867,11567989,1023,1,0
S,2868,11572015,1023,1,0
S,2869,11575972,1023,1,0
S,2870,11580021,1023,1,0
S,2871,11583979,1023,1,0
S,2872,11588019,1023,1,0
S,2873,11592010,1023,1,0
S,2874,11596039,1023,1,0
S,2875,11599987,1023,1,0
S,2876,11604021,1023,1,0
S,2877,11607983,1023,1,0
S,2878,11612029,1023,1,0
S,2879,11616027,1023,1,0
S,2880,11619994,1023,1,0
S,2881,11624014,1023,1,0
S,2882,11627981,1023,1,0
S,2883,11631985,1023,1,0
S,2884,11636019,1023,1,0
S,2885,11639974,1023,1,0
S,2886,11644015,1023,1,0
S,2887,11648027,1023,1,0
S,2888,11652020,1023,1,0
S,2889,11655980,1023,1,0
S,2890,11660018,1023,1,0
S,2891,11664029,1023,1,0
S,2892,11667970,1023,1,0
S,2893,11672006,1023,1,0
S,2894,11675981,1023,1,0
S,2895,11679963,1023,1,0
S,2896,11683981,1023,1,0
S,2897,11688009,1023,1,0
S,2898,11691987,1023,1,0
S,2899,11696029,1023,1,0
S,2900,11700006,1023,1,0
S,2901,11704015,1023,1,0
S,2902,11707984,1023,1,0
S,2903,11712024,1023,1,0
S,2904,11715985,1023,1,0
S,2905,11720017,1023,1,0
S,2906,11724020,1023,1,0
S,2907,11727970,1023,1,0
S,2908,11732017,1023,1,0
S,2909,11736017,1023,1,0
S,2910,11739985,1023,1,0
S,2911,11744003,1023,1,0
S,2912,11748016,1023,1,0
S,2913,11752010,1023,1,0
S,2914,11756003,1023,1,0
S,2915,11759963,1023,1,0
S,2916,11764038,1023,1,0
S,2917,11767992,1023,1,0
S,2918,11772022,1023,1,0
S,2919,11776033,1023,1,0
S,2920,11780007,1023,1,0
S,2921,11783990,1023,1,0
S,2922,11787973,1023,1,0
S,2923,11792015,1023,1,0
S,2924,11795981,1023,1,0
S,2925,11800011,1023,1,0
S,2926,11803973,1023,1,0
S,2927,11808016,1023,1,0
S,2928,11812026,1023,1,0
S,2929,11815993,1023,1,0
S,2930,11819992,1023,1,0
S,2931,11824030,1023,1,0
S,2932,11828013,1023,1,0
S,2933,11831994,1023,1,0
S,2934,11835960,1023,1,0
S,2935,11839985,1023,1,0
S,2936,11843984,1023,1,0
S,2937,11847963,1023,1,0
S,2938,11851984,1023,1,0
S,2939,11855968,1023,1,0
S,2940,11859971,1023,1,0
S,2941,11863998,1023,1,0
S,2942,11868011,1023,1,0
S,2943,11871970,1023,1,0
S,2944,11876003,1023,1,0
S,2945,11880017,1023,1,0
S,2946,11884034,1023,1,0
S,2947,11888018,1023,1,0
S,2948,11891974,1023,1,0
S,2949,11896038,1023,1,0
S,2950,11900007,1023,1,0
S,2951,11903974,1023,1,0
S,2952,11908009,1023,1,0
S,2953,11912012,1023,1,0
S,2954,11916000,1023,1,0
S,2955,11919965,1023,1,0
S,2956,11923973,1023,1,0
S,2957,11928021,1023,1,0
S,2958,11932021,1023,1,0
S,2959,11935960,1023,1,0
S,2960,11940035,1023,1,0
S,2961,11943965,1023,1,0
S,2962,11947996,1023,1,0
S,2963,11952000,1023,1,0
S,2964,11956024,1023,1,0
S,2965,11960008,1023,1,0
S,2966,11964005,1023,1,0
S,2967,11967964,1023,1,0
S,2968,11972013,1023,1,0
S,2969,11976033,1023,1,0
S,2970,11980003,1023,1,0
S,2971,11984027,1023,1,0
S,2972,11987987,1023,1,0
S,2973,11991994,1023,1,0
S,2974,11996027,1023,1,0
S,2975,12000016,1023,1,0
S,2976,12003964,1023,1,0
S,2977,12008004,1023,1,0
S,2978,12012000,1023,1,0
S,2979,12015973,1023,1,0
S,2980,12019993,1023,1,0
S,2981,12023962,1023,1,0
S,2982,12027993,1023,1,0
S,2983,12031987,1023,1,0
S,2984,12035975,1023,1,0
S,2985,12040030,1023,1,0
S,2986,12044025,1023,1,0
S,2987,12048008,1023,1,0
S,2988,12051976,1023,1,0
S,2989,12055964,1023,1,0
S,2990,12060033,1023,1,0
S,2991,12063988,1023,1,0
S,2992,12068022,1023,1,0
S,2993,12071986,1023,1,0
S,2994,12075986,1023,1,0
S,2995,12080008,1023,1,0
S,2996,12084019,1023,1,0
S,2997,12088032,1023,1,0
S,2998,12092020,1023,1,0
S,2999,12096019,1023,1,0
S,3000,12100021,1023,1,0
S,3001,12103986,1023,1,0
S,3002,12107996,1023,1,0
S,3003,12112036,1023,1,0
S,3004,12115986,1023,1,0
S,3005,12120006,1023,1,0
S,3006,12123971,1023,1,0
S,3007,12128036,1023,1,0
S,3008,12132023,1023,1,0
S,3009,12135981,1023,1,0
S,3010,12140039,1023,1,0
S,3011,12144034,1023,1,0
S,3012,12148008,1023,1,0
S,3013,12152028,1023,1,0
S,3014,12155982,1023,1,0
S,3015,12160002,1023,1,0
S,3016,12164015,1023,1,0
S,3017,12167978,1023,1,0
S,3018,12172005,1023,1,0
S,3019,12176029,1023,1,0
S,3020,12180009,1023,1,0
S,3021,12184005,1023,1,0
S,3022,12188030,1023,1,0
S,3023,12191987,1023,1,0
S,3024,12195970,1023,1,0
S,3025,12200033,1023,1,0
S,3026,12203976,1023,1,0
S,3027,12207989,1023,1,0
S,3028,12211973,1023,1,0
S,3029,12215989,1023,1,0
S,3030,12220004,1023,1,0
S,3031,12223991,1023,1,0
S,3032,12228006,1023,1,0
S,3033,12231985,1023,1,0
S,3034,12235978,1023,1,0
S,3035,12239975,1023,1,0
S,3036,12244028,1023,1,0
S,3037,12248029,1023,1,0
S,3038,12251979,1023,1,0
S,3039,12256001,1023,1,0
S,3040,12260005,1023,1,0
S,3041,12264033,1023,1,0
S,3042,12268025,1023,1,0
S,3043,12272027,1023,1,0
S,3044,12275960,1023,1,0
S,3045,12279992,1023,1,0
S,3046,12283987,1023,1,0
S,3047,12287973,1023,1,0
S,3048,12292034,1023,1,0
S,3049,12296039,1023,1,0
S,3050,12299997,1023,1,0
S,3051,12304011,1023,1,0
S,3052,12308015,1023,1,0
S,3053,12312004,1023,1,0
S,3054,12315990,1023,1,0
S,3055,12319991,1023,1,0
S,3056,12323986,1023,1,0
S,3057,12327975,1023,1,0
S,3058,12331988,1023,1,0
S,3059,12336000,1023,1,0
S,3060,12339974,1023,1,0
S,3061,12343995,1023,1,0
S,3062,12347986,1023,1,0
S,3063,12352016,1023,1,0
S,3064,12355971,1023,1,0
S,3065,12359995,1023,1,0
S,3066,12364033,1023,1,0
S,3067,12367981,1023,1,0
S,3068,12372034,1023,1,0
S,3069,12376016,1023,1,0
S,3070,12379982,1023,1,0
S,3071,12383969,1023,1,0
S,3072,12388017,1023,1,0
S,3073,12392018,1023,1,0
S,3074,12395987,1023,1,0
S,3075,12400019,1023,1,0
S,3076,12403974,1023,1,0
S,3077,12408000,1023,1,0
S,3078,12412029,1023,1,0
S,3079,12415983,1023,1,0
S,3080,12420035,1023,1,0
S,3081,12424029,1023,1,0
S,3082,12428018,1023,1,0
S,3083,12431973,1023,1,0
S,3084,12436005,1023,1,0
S,3085,12440019,1023,1,0
S,3086,12444012,1023,1,0
S,3087,12448034,1023,1,0
S,3088,12452015,1023,1,0
S,3089,12455971,1023,1,0
S,3090,12459979,1023,1,0
S,3091,12463971,1023,1,0
S,3092,12468027,1023,1,0
S,3093,12471990,1023,1,0
S,3094,12476009,1023,1,0
S,3095,12479974,1023,1,0
S,3096,12484029,1023,1,0
S,3097,12488006,1023,1,0
S,3098,12491979,1023,1,0
S,3099,12495991,1023,1,0
S,3100,12500014,1023,1,0
S,3101,12503986,1023,1,0
S,3102,12508032,1023,1,0
S,3103,12512001,1023,1,0
S,3104,12515996,1023,1,0
S,3105,12519991,1023,1,0
S,3106,12524032,1023,1,0
S,3107,12528021,1023,1,0
S,3108,12531984,1023,1,0
S,3109,12535997,1023,1,0
S,3110,12539968,1023,1,0
S,3111,12544015,1023,1,0
S,3112,12547973,1023,1,0
S,3113,12551972,1023,1,0
S,3114,12556025,1023,1,0
S,3115,12559985,1023,1,0
S,3116,12563969,1023,1,0
S,3117,12568004,1023,1,0
S,3118,12571982,1023,1,0
S,3119,12576034,1023,1,0
S,3120,12580037,1023,1,0
S,3121,12584010,1023,1,0
S,3122,12588007,1023,1,0
S,3123,12591960,1023,1,0
S,3124,12595998,1023,1,0
S,3125,12599972,1023,1,0
S,3126,12604011,1023,1,0
S,3127,12607986,1023,1,0
S,3128,12612026,1023,1,0
S,3129,12615965,1023,1,0
S,3130,12619989,1023,1,0
S,3131,12624026,1023,1,0
S,3132,12627982,1023,1,0
S,3133,12632027,1023,1,0
S,3134,12636027,1023,1,0
S,3135,12640018,1023,1,0
S,3136,12644025,1023,1,0
S,3137,12647996,1023,1,0
S,3138,12651979,1023,1,0
S,3139,12656026,1023,1,0
S,3140,12659981,1023,1,0
S,3141,12664010,1023,1,0
S,3142,12667968,1023,1,0
S,3143,12671985,1023,1,0
S,3144,12676019,1023,1,0
S,3145,12680021,1023,1,0
S,3146,12684026,1023,1,0
S,3147,12688014,1023,1,0
S,3148,12691972,1023,1,0
S,3149,12696000,1023,1,0
S,3150,12699965,1023,1,0
S,3151,12703997,1023,1,0
S,3152,12708011,1023,1,0
S,3153,12712036,1023,1,0
S,3154,12716002,1023,1,0
S,3155,12719967,1023,1,0
S,3156,12724009,1023,1,0
S,3157,12727991,1023,1,0
S,3158,12732006,1023,1,0
S,3159,12736006,1023,1,0
S,3160,12739961,1023,1,0
S,3161,12744021,1023,1,0
S,3162,12747961,1023,1,0
S,3163,12751976,1023,1,0
S,3164,12755963,1023,1,0
S,3165,12760003,1023,1,0
S,3166,12763999,1023,1,0
S,3167,12768001,1023,1,0
S,3168,12771975,1023,1,0
S,3169,12775994,1023,1,0
S,3170,12779973,1023,1,0
S,3171,12784027,1023,1,0
S,3172,12787972,1023,1,0
S,3173,12791979,1023,1,0
S,3174,12795975,1023,1,0
S,3175,12799963,1023,1,0
S,3176,12803979,1023,1,0
S,3177,12808029,1023,1,0
S,3178,12811964,1023,1,0
S,3179,12816017,1023,1,0
S,3180,12820016,1023,1,0
S,3181,12824017,1023,1,0
S,3182,12827990,1023,1,0
S,3183,12832029,1023,1,0
S,3184,12836039,1023,1,0
S,3185,12839978,1023,1,0
S,3186,12844020,1023,1,0
S,3187,12848025,1023,1,0
S,3188,12852023,1023,1,0
S,3189,12856009,1023,1,0
S,3190,12859999,1023,1,0
S,3191,12864031,1023,1,0
S,3192,12867973,1023,1,0
S,3193,12871969,1023,1,0
S,3194,12876036,1023,1,0
S,3195,12879963,1023,1,0
S,3196,12883991,1023,1,0
S,3197,12888006,1023,1,0
S,3198,12891991,1023,1,0
S,3199,12896007,1023,1,0
S,3200,12900015,1023,1,0
S,3201,12904037,1023,1,0
S,3202,12908028,1023,1,0
S,3203,12912029,1023,1,0
S,3204,12915999,1023,1,0
S,3205,12919994,1023,1,0
S,3206,12924018,1023,1,0
S,3207,12927989,1023,1,0
S,3208,12931989,1023,1,0
S,3209,12936004,1023,1,0
S,3210,12939968,1023,1,0
S,3211,12943986,1023,1,0
S,3212,12948022,1023,1,0
S,3213,12952038,1023,1,0
S,3214,12955970,1023,1,0
S,3215,12960013,1023,1,0
S,3216,12963993,1023,1,0
S,3217,12967963,1023,1,0
S,3218,12971981,1023,1,0
S,3219,12975977,1023,1,0
S,3220,12980026,1023,1,0
S,3221,12984017,1023,1,0
S,3222,12988031,1023,1,0
S,3223,12991998,1023,1,0
S,3224,12995998,1023,1,0
S,3225,13000000,1023,1,0
S,3226,13004002,1023,1,0
S,3227,13007994,1023,1,0
S,3228,13011991,1023,1,0
S,3229,13016020,1023,1,0
S,3230,13019988,1023,1,0
S,3231,13023999,1023,1,0
S,3232,13027999,1023,1,0
S,3233,13032022,1023,1,0
S,3234,13035981,1023,1,0
S,3235,13040015,1023,1,0
S,3236,13044031,1023,1,0
S,3237,13048007,1023,1,0
S,3238,13051996,1023,1,0
S,3239,13056001,1023,1,0
S,3240,13060031,1023,1,0
S,3241,13063996,1023,1,0
S,3242,13068039,1023,1,0
S,3243,13072036,1023,1,0
S,3244,13075972,1023,1,0
S,3245,13079976,1023,1,0
S,3246,13084007,1023,1,0
S,3247,13087989,1023,1,0
S,3248,13091963,1023,1,0
S,3249,13095990,1023,1,0
S,3250,13100019,532,0,0
S,3251,13104034,533,0,0
S,3252,13108020,525,0,0
S,3253,13112005,540,0,0
S,3254,13116035,533,0,0
S,3255,13119963,524,0,0
S,3256,13124039,539,0,0
S,3257,13128009,536,0,0
S,3258,13131995,515,0,0
S,3259,13136020,520,0,0
S,3260,13140024,526,0,0
S,3261,13144032,536,0,0
S,3262,13147987,524,0,0
S,3263,13152010,511,0,0
S,3264,13156031,495,0,0
S,3265,13160039,499,0,0
S,3266,13163976,492,0,0
S,3267,13168039,513,0,0
S,3268,13172032,533,0,0
S,3269,13175973,557,0,0
S,3270,13180015,619,0,0
S,3271,13184025,687,0,0
S,3272,13187988,745,0,0
S,3273,13192008,788,0,0
S,3274,13196036,808,0,0
S,3275,13199978,829,0,0
S,3276,13204018,817,0,0
S,3277,13207967,791,0,0
S,3278,13211994,723,0,0
S,3279,13215977,664,0,0
S,3280,13220028,610,0,0
S,3281,13223999,577,0,0
S,3282,13227967,539,0,0
S,3283,13232030,499,0,0
S,3284,13235987,476,0,0
S,3285,13239963,471,0,0
S,3286,13243981,479,0,0
S,3287,13248011,461,0,0
S,3288,13251991,468,0,0
S,3289,13256038,475,0,0
S,3290,13260028,490,0,0
S,3291,13263993,509,0,0
S,3292,13267999,514,0,0
S,3293,13272031,513,0,0
S,3294,13276019,525,0,0
S,3295,13280002,531,0,0
S,3296,13284007,533,0,0
S,3297,13288005,533,0,0
S,3298,13291997,520,0,0
S,3299,13295977,527,0,0
S,3300,13299993,527,0,0
S,3301,13303973,529,0,0
S,3302,13307995,533,0,0
S,3303,13312000,520,0,0
S,3304,13316012,524,0,0
S,3305,13319983,531,0,0
S,3306,13323994,542,0,0
S,3307,13328034,537,0,0
S,3308,13331966,537,0,0
S,3309,13336005,544,0,0
S,3310,13339966,546,0,0
S,3311,13344012,540,0,0
S,3312,13348007,536,0,0
S,3313,13351987,538,0,0
S,3314,13355987,539,0,0
S,3315,13360012,539,0,0
S,3316,13364025,547,0,0
S,3317,13368011,549,0,0
S,3318,13372007,553,0,0
S,3319,13376018,567,0,0
S,3320,13380001,576,0,0
S,3321,13383998,567,0,0
S,3322,13388033,572,0,0
S,3323,13391998,565,0,0
S,3324,13396011,566,0,0
S,3325,13400004,583,0,0
S,3326,13404010,592,0,0
S,3327,13408026,590,0,0
S,3328,13412037,596,0,0
S,3329,13416023,592,0,0
S,3330,13420033,608,0,0
S,3331,13424003,606,0,0
S,3332,13427980,615,0,0
S,3333,13431989,606,0,0
S,3334,13435979,609,0,0
S,3335,13440023,618,0,0
S,3336,13443973,612,0,0
S,3337,13447965,616,0,0
S,3338,13452005,615,0,0
S,3339,13456005,613,0,0
S,3340,13460032,620,0,0
S,3341,13463980,618,0,0
S,3342,13468022,612,0,0
S,3343,13472034,613,0,0
S,3344,13475985,612,0,0
S,3345,13479984,608,0,0
S,3346,13483996,622,0,0
S,3347,13487984,615,0,0
S,3348,13492037,607,0,0
S,3349,13495984,602,0,0
S,3350,13499973,593,0,0
S,3351,13504019,612,0,0
S,3352,13508018,589,0,0
S,3353,13511992,587,0,0
S,3354,13516016,583,0,0
S,3355,13520034,581,0,0
S,3356,13524027,581,0,0
S,3357,13527999,569,0,0
S,3358,13531963,562,0,0
S,3359,13535992,559,0,0
S,3360,13539963,568,0,0
S,3361,13543996,557,0,0
S,3362,13548037,560,0,0
S,3363,13552009,550,0,0
S,3364,13555992,543,0,0
S,3365,13560015,540,0,0
S,3366,13564011,544,0,0
S,3367,13568025,531,0,0
S,3368,13572019,534,0,0
S,3369,13575987,532,0,0
S,3370,13579990,529,0,0
S,3371,13584026,538,0,0
S,3372,13588004,533,0,0
S,3373,13592019,520,0,0
S,3374,13595984,527,0,0
S,3375,13600003,521,0,0
S,3376,13604004,542,0,0
S,3377,13607962,519,0,0
S,3378,13612024,514,0,0
S,3379,13616035,513,0,0
S,3380,13619974,522,0,0
S,3381,13624011,531,0,0
S,3382,13627994,522,0,0
S,3383,13632029,514,0,0
S,3384,13636015,525,0,0
S,3385,13640035,524,0,0
S,3386,13643965,520,0,0
S,3387,13647978,519,0,0
S,3388,13652003,505,0,0
S,3389,13655975,512,0,0
S,3390,13659998,526,0,0
S,3391,13663978,513,0,0
S,3392,13667963,510,0,0
S,3393,13671978,514,0,0
S,3394,13676004,497,0,0
S,3395,13680038,523,0,0
S,3396,13684035,510,0,0
S,3397,13688006,513,0,0
S,3398,13691993,511,0,0
S,3399,13696014,517,0,0
S,3400,13700038,516,0,0
S,3401,13704038,507,0,0
S,3402,13707974,506,0,0
S,3403,13712004,512,0,0
S,3404,13715972,496,0,0
S,3405,13719982,511,0,0
S,3406,13724031,512,0,0
S,3407,13728006,520,0,0
S,3408,13731989,517,0,0
S,3409,13736006,493,0,0
S,3410,13739992,515,0,0
S,3411,13744003,520,0,0
S,3412,13748005,510,0,0
S,3413,13751968,505,0,0
S,3414,13756011,500,0,0
S,3415,13759960,510,0,0
S,3416,13764033,519,0,0
S,3417,13767972,523,0,0
S,3418,13771973,518,0,0
S,3419,13776019,507,0,0
S,3420,13779984,508,0,0
S,3421,13784015,524,0,0
S,3422,13787999,501,0,0
S,3423,13791994,505,0,0
S,3424,13795975,517,0,0
S,3425,13800030,532,0,0
S,3426,13803995,520,0,0
S,3427,13808032,525,0,0
S,3428,13812020,514,0,0
S,3429,13816001,521,0,0
S,3430,13819963,527,0,0
S,3431,13824012,529,0,0
S,3432,13828003,536,0,0
S,3433,13831990,529,0,0
S,3434,13835966,533,0,0
S,3435,13839983,534,0,0
S,3436,13844032,533,0,0
S,3437,13847997,540,0,0
S,3438,13852015,539,0,0
S,3439,13856033,528,0,0
S,3440,13860006,544,0,0
S,3441,13863983,542,0,0
S,3442,13868030,534,0,0
S,3443,13872001,530,0,0
S,3444,13875968,523,0,0
S,3445,13879964,523,0,0
S,3446,13884031,536,0,0
S,3447,13888037,532,0,0
S,3448,13892026,516,0,0
S,3449,13896000,514,0,0
S,3450,13900016,516,0,0
S,3451,13904009,524,0,0
S,3452,13908013,525,0,0
S,3453,13911992,505,0,0
S,3454,13916024,508,0,0
S,3455,13920027,509,0,0
S,3456,13924031,516,0,0
S,3457,13928008,518,0,0
S,3458,13931991,498,0,0
S,3459,13936021,489,0,0
S,3460,13939981,504,0,0
S,3461,13944032,499,0,0
S,3462,13947962,517,0,0
S,3463,13952038,497,0,0
S,3464,13956031,497,0,0
S,3465,13959964,504,0,0
S,3466,13964026,507,0,0
S,3467,13967991,501,0,0
S,3468,13972016,495,0,0
S,3469,13975985,495,0,0
S,3470,13980031,485,0,0
S,3471,13983993,494,0,0
S,3472,13987996,475,0,0
S,3473,13991967,447,0,0
S,3474,13995989,464,0,0
S,3475,14000003,461,0,0
S,3476,14003978,498,0,0
S,3477,14008020,541,0,0
S,3478,14011994,573,0,0
S,3479,14015995,613,0,0
S,3480,14019992,677,0,0
S,3481,14023964,740,0,0
S,3482,14027984,788,0,0
S,3483,14031972,790,0,0
S,3484,14036008,795,0,0
S,3485,14039989,766,0,0
S,3486,14044010,721,0,0
S,3487,14048021,664,0,0
S,3488,14052021,613,0,0
S,3489,14056033,542,0,0
S,3490,14060023,507,0,0
S,3491,14063961,492,0,0
S,3492,14068019,468,0,0
S,3493,14072016,434,0,0
S,3494,14075978,426,0,0
S,3495,14080031,427,0,0
S,3496,14083965,445,0,0
S,3497,14087982,442,0,0
S,3498,14092024,459,0,0
S,3499,14095962,463,0,0
S,3500,14099985,474,0,0
S,3501,14104018,486,0,0
S,3502,14107984,492,0,0
S,3503,14111991,494,0,0
S,3504,14116035,490,0,0
S,3505,14120009,498,0,0
S,3506,14124004,507,0,0
S,3507,14128009,501,0,0
S,3508,14132000,502,0,0
S,3509,14136039,495,0,0
S,3510,14140014,496,0,0
S,3511,14143978,506,0,0
S,3512,14148019,514,0,0
S,3513,14152006,509,0,0
S,3514,14155995,489,0,0
S,3515,14160036,506,0,0
S,3516,14164037,507,0,0
S,3517,14167995,507,0,0
S,3518,14172033,503,0,0
S,3519,14176001,504,0,0
S,3520,14180020,508,0,0
S,3521,14183985,516,0,0
S,3522,14187999,520,0,0
S,3523,14192020,508,0,0
S,3524,14196016,509,0,0
S,3525,14199960,517,0,0
S,3526,14204002,524,0,0
S,3527,14208022,536,0,0
S,3528,14212030,524,0,0
S,3529,14215968,531,0,0
S,3530,14220018,540,0,0
S,3531,14224000,552,0,0
S,3532,14228015,550,0,0
S,3533,14231975,555,0,0
S,3534,14235976,550,0,0
S,3535,14239963,560,0,0
S,3536,14243977,571,0,0
S,3537,14248039,560,0,0
S,3538,14251988,569,0,0
S,3539,14256037,577,0,0
S,3540,14259970,576,0,0
S,3541,14263999,581,0,0
S,3542,14268032,595,0,0
S,3543,14271995,581,0,0
S,3544,14275967,588,0,0
S,3545,14279970,572,0,0
S,3546,14284005,593,0,0
S,3547,14288005,588,0,0
S,3548,14291998,588,0,0
S,3549,14296033,591,0,0
S,3550,14300011,587,0,0
S,3551,14303987,590,0,0
S,3552,14307989,571,0,0
S,3553,14312004,586,0,0
S,3554,14315980,586,0,0
S,3555,14320018,580,0,0
S,3556,14323991,578,0,0
S,3557,14327999,578,0,0
S,3558,14331992,574,0,0
S,3559,14335989,566,0,0
S,3560,14340023,576,0,0
S,3561,14344003,560,0,0
S,3562,14347989,550,0,0
S,3563,14352011,552,0,0
S,3564,14355977,551,0,0
S,3565,14359980,541,0,0
S,3566,14363997,544,0,0
S,3567,14368036,535,0,0
S,3568,14371984,522,0,0
S,3569,14375998,520,0,0
S,3570,14379986,513,0,0
S,3571,14383963,528,0,0
S,3572,14388016,525,0,0
S,3573,14391994,519,0,0
S,3574,14396039,504,0,0
S,3575,14400027,507,0,0
S,3576,14404015,503,0,0
S,3577,14407972,501,0,0
S,3578,14412009,508,0,0
S,3579,14416018,516,0,0
S,3580,14419964,495,0,0
S,3581,14423983,502,0,0
S,3582,14427975,507,0,0
S,3583,14432015,491,0,0
S,3584,14435961,496,0,0
S,3585,14440030,494,0,0
S,3586,14444032,498,0,0
S,3587,14448020,503,0,0
S,3588,14451969,490,0,0
S,3589,14455969,482,0,0
S,3590,14459997,498,0,0
S,3591,14463984,497,0,0
S,3592,14467975,492,0,0
S,3593,14472028,485,0,0
S,3594,14475965,491,0,0
S,3595,14480020,487,0,0
S,3596,14484002,497,0,0
S,3597,14487968,500,0,0
S,3598,14491961,488,0,0
S,3599,14495978,494,0,0
S,3600,14500026,483,0,0
S,3601,14503988,499,0,0
S,3602,14508021,497,0,0
S,3603,14511985,500,0,0
S,3604,14516036,487,0,0
S,3605,14520017,496,0,0
S,3606,14524035,494,0,0
S,3607,14527993,487,0,0
S,3608,14531964,483,0,0
S,3609,14535973,483,0,0
S,3610,14539988,496,0,0
S,3611,14543965,491,0,0
S,3612,14547974,494,0,0
S,3613,14552021,494,0,0
S,3614,14556027,494,0,0
S,3615,14560033,497,0,0
S,3616,14563967,505,0,0
S,3617,14567965,487,0,0
S,3618,14572026,486,0,0
S,3619,14575978,489,0,0
S,3620,14580030,498,0,0
S,3621,14584023,499,0,0
S,3622,14588024,490,0,0
S,3623,14592021,488,0,0
S,3624,14596031,478,0,0
S,3625,14599996,498,0,0
S,3626,14603987,487,0,0
S,3627,14608005,498,0,0
S,3628,14612029,499,0,0
S,3629,14616002,497,0,0
S,3630,14620025,487,0,0
S,3631,14624007,503,0,0
S,3632,14627999,500,0,0
S,3633,14631979,496,0,0
S,3634,14635995,508,0,0
S,3635,14640011,506,0,0
S,3636,14643986,502,0,0
S,3637,14647963,505,0,0
S,3638,14652032,512,0,0
S,3639,14655962,510,0,0
S,3640,14659971,508,0,0
S,3641,14664018,511,0,0
S,3642,14667994,518,0,0
S,3643,14671984,515,0,0
S,3644,14676038,522,0,0
S,3645,14680016,518,0,0
S,3646,14684000,531,0,0
S,3647,14687974,533,0,0
S,3648,14691961,510,0,0
S,3649,14695991,514,0,0
S,3650,14699971,530,0,0
S,3651,14704005,521,0,0
S,3652,14708008,520,0,0
S,3653,14712017,519,0,0
S,3654,14716032,505,0,0
S,3655,14719990,510,0,0
S,3656,14724033,505,0,0
S,3657,14727964,514,0,0
S,3658,14731986,501,0,0
S,3659,14736013,498,0,0
S,3660,14740034,487,0,0
S,3661,14744032,511,0,0
S,3662,14747974,507,0,0
S,3663,14751976,492,0,0
S,3664,14755989,501,0,0
S,3665,14760035,482,0,0
S,3666,14764015,500,0,0
S,3667,14767996,489,0,0
S,3668,14771973,509,0,0
S,3669,14776021,475,0,0
S,3670,14780012,488,0,0
S,3671,14783984,495,0,0
S,3672,14788037,502,0,0
S,3673,14792016,497,0,0
S,3674,14795973,492,0,0
S,3675,14800011,492,0,0
S,3676,14803994,509,0,0
S,3677,14808031,486,0,0
S,3678,14812001,482,0,0
S,3679,14816003,481,0,0
S,3680,14820002,459,0,0
S,3681,14824003,458,0,0
S,3682,14828014,466,0,0
S,3683,14831965,462,0,0
S,3684,14835960,466,0,0
S,3685,14840039,507,0,0
S,3686,14843984,564,0,0
S,3687,14848019,601,0,0
S,3688,14852005,660,0,0
S,3689,14855973,711,0,0
S,3690,14860035,757,0,0
S,3691,14863996,803,0,0
S,3692,14867986,802,0,0
S,3693,14872012,777,0,0
S,3694,14876010,726,0,0
S,3695,14880014,679,0,0
S,3696,14883980,627,0,0
S,3697,14888024,574,0,0
S,3698,14892023,520,0,0
S,3699,14895965,483,0,0
S,3700,14899988,473,0,0
S,3701,14903978,445,0,0
S,3702,14908026,437,0,0
S,3703,14912006,429,0,0
S,3704,14915977,428,0,0
S,3705,14920007,434,0,0
S,3706,14923976,449,0,0
S,3707,14927989,467,0,0
S,3708,14932023,465,0,0
S,3709,14936035,470,0,0
S,3710,14940009,496,0,0
S,3711,14944006,488,0,0
S,3712,14947975,504,0,0
S,3713,14952021,497,0,0
S,3714,14956032,487,0,0
S,3715,14960010,498,0,0
S,3716,14964038,504,0,0
S,3717,14968005,513,0,0
S,3718,14972028,506,0,0
S,3719,14975976,498,0,0
S,3720,14979979,498,0,0
S,3721,14983972,500,0,0
S,3722,14987984,509,0,0
S,3723,14991982,497,0,0
S,3724,14996026,504,0,0
S,3725,14999981,510,0,0
S,3726,15003982,520,0,0
S,3727,15007973,524,0,0
S,3728,15011979,515,0,0
S,3729,15016018,518,0,0
S,3730,15020025,520,0,0
S,3731,15023989,535,0,0
S,3732,15027972,534,0,0
S,3733,15032028,537,0,0
S,3734,15035975,537,0,0
S,3735,15040026,532,0,0
S,3736,15044026,535,0,0
S,3737,15047982,550,0,0
S,3738,15051986,552,0,0
S,3739,15055981,543,0,0
S,3740,15060013,564,0,0
S,3741,15063971,564,0,0
S,3742,15068012,565,0,0
S,3743,15071988,567,0,0
S,3744,15075993,558,0,0
S,3745,15079965,565,0,0
S,3746,15083966,581,0,0
S,3747,15087994,578,0,0
S,3748,15092026,583,0,0
S,3749,15095991,585,0,0
S,3750,15100033,576,0,0
S,3751,15104005,594,0,0
S,3752,15108030,602,0,0
S,3753,15112008,582,0,0
S,3754,15115983,594,0,0
S,3755,15120001,593,0,0
S,3756,15124030,594,0,0
S,3757,15128031,611,0,0
S,3758,15131982,606,0,0
S,3759,15135980,594,0,0
S,3760,15139978,597,0,0
S,3761,15143969,611,0,0
S,3762,15147976,607,0,0
S,3763,15151967,592,0,0
S,3764,15156015,593,0,0
S,3765,15159985,590,0,0
S,3766,15164022,589,0,0
S,3767,15167971,590,0,0
S,3768,15172012,575,0,0
S,3769,15176020,576,0,0
S,3770,15180038,571,0,0
S,3771,15184026,571,0,0
S,3772,15187999,565,0,0
S,3773,15191981,562,0,0
S,3774,15195986,559,0,0
S,3775,15199966,557,0,0
S,3776,15203973,550,0,0
S,3777,15208007,554,0,0
S,3778,15211998,536,0,0
S,3779,15215996,530,0,0
S,3780,15220022,537,0,0
S,3781,15224007,545,0,0
S,3782,15227967,540,0,0
S,3783,15231971,532,0,0
S,3784,15235987,533,0,0
S,3785,15240012,532,0,0
S,3786,15243977,527,0,0
S,3787,15247961,531,0,0
S,3788,15252035,518,0,0
S,3789,15255967,519,0,0
S,3790,15260012,523,0,0
S,3791,15263994,523,0,0
S,3792,15268007,512,0,0
S,3793,15271993,514,0,0
S,3794,15275975,511,0,0
S,3795,15279961,516,0,0
S,3796,15283981,518,0,0
S,3797,15287993,512,0,0
S,3798,15291984,503,0,0
S,3799,15296006,515,0,0
S,3800,15299975,520,0,0
S,3801,15304007,522,0,0
S,3802,15307970,517,0,0
S,3803,15311994,524,0,0
S,3804,15316000,515,0,0
S,3805,15320035,515,0,0
S,3806,15323979,524,0,0
S,3807,15327961,517,0,0
S,3808,15331968,517,0,0
S,3809,15336012,513,0,0
S,3810,15339969,519,0,0
S,3811,15343993,520,0,0
S,3812,15347989,516,0,0
S,3813,15351996,516,0,0
S,3814,15356020,519,0,0
S,3815,15359989,511,0,0
S,3816,15364005,518,0,0
S,3817,15367985,513,0,0
S,3818,15371985,519,0,0
S,3819,15376006,511,0,0
S,3820,15380023,523,0,0
S,3821,15384013,517,0,0
S,3822,15387987,525,0,0
S,3823,15391987,512,0,0
S,3824,15396007,511,0,0
S,3825,15400022,521,0,0
S,3826,15404012,520,0,0
S,3827,15408038,518,0,0
S,3828,15412033,522,0,0
S,3829,15415991,514,0,0
S,3830,15419981,527,0,0
S,3831,15424027,539,0,0
S,3832,15428010,520,0,0
S,3833,15432012,516,0,0
S,3834,15435977,508,0,0
S,3835,15439992,515,0,0
S,3836,15443981,531,0,0
S,3837,15448018,528,0,0
S,3838,15451972,524,0,0
S,3839,15455964,525,0,0
S,3840,15459987,522,0,0
S,3841,15463985,523,0,0
S,3842,15467965,540,0,0
S,3843,15471994,532,0,0
S,3844,15476006,537,0,0
S,3845,15479960,537,0,0
S,3846,15483969,548,0,0
S,3847,15487995,541,0,0
S,3848,15492022,541,0,0
S,3849,15496038,540,0,0
S,3850,15499973,550,0,0
S,3851,15503986,562,0,0
S,3852,15507973,557,0,0
S,3853,15512001,532,0,0
S,3854,15516039,548,0,0
S,3855,15520007,553,0,0
S,3856,15524008,562,0,0
S,3857,15528037,556,0,0
S,3858,15532005,545,0,0
S,3859,15536013,542,0,0
S,3860,15540038,547,0,0
S,3861,15543982,548,0,0
S,3862,15548014,557,0,0
S,3863,15552029,545,0,0
S,3864,15556039,538,0,0
S,3865,15559984,546,0,0
S,3866,15563975,555,0,0
S,3867,15567972,538,0,0
S,3868,15572019,532,0,0
S,3869,15576014,527,0,0
S,3870,15579971,525,0,0
S,3871,15583973,531,0,0
S,3872,15588019,527,0,0
S,3873,15591964,529,0,0
S,3874,15596034,527,0,0
S,3875,15599971,533,0,0
S,3876,15603972,527,0,0
S,3877,15607981,536,0,0
S,3878,15612034,519,0,0
S,3879,15616012,522,0,0
S,3880,15620003,535,0,0
S,3881,15624016,538,0,0
S,3882,15628002,536,0,0
S,3883,15632009,536,0,0
S,3884,15635982,526,0,0
S,3885,15639974,520,0,0
S,3886,15644017,520,0,0
S,3887,15647960,508,0,0
S,3888,15652019,500,0,0
S,3889,15656035,485,0,0
S,3890,15659966,485,0,0
S,3891,15664013,489,0,0
S,3892,15668023,496,0,0
S,3893,15672021,540,0,0
S,3894,15675998,567,0,0
S,3895,15680036,602,0,0
S,3896,15684023,678,0,0
S,3897,15687996,728,0,0
S,3898,15692038,764,0,0
S,3899,15696030,809,0,0
S,3900,15700024,828,0,0
S,3901,15703980,822,0,0
S,3902,15707995,788,0,0
S,3903,15712012,721,0,0
S,3904,15716026,668,0,0
S,3905,15719998,622,0,0
S,3906,15724034,578,0,0
S,3907,15728025,538,0,0
S,3908,15732015,502,0,0
S,3909,15736035,488,0,0
S,3910,15739987,465,0,0
S,3911,15743982,462,0,0
S,3912,15747983,479,0,0
S,3913,15752023,471,0,0
S,3914,15755985,481,0,0
S,3915,15759988,490,0,0
S,3916,15764015,500,0,0
S,3917,15768015,508,0,0
S,3918,15771961,514,0,0
S,3919,15775986,514,0,0
S,3920,15779972,525,0,0
S,3921,15783975,533,0,0
S,3922,15788030,538,0,0
S,3923,15792014,534,0,0
S,3924,15795991,538,0,0
S,3925,15799992,530,0,0
S,3926,15804000,539,0,0
S,3927,15807987,544,0,0
S,3928,15812019,535,0,0
S,3929,15815971,518,0,0
S,3930,15820035,540,0,0
S,3931,15823989,543,0,0
S,3932,15828008,540,0,0
S,3933,15832034,537,0,0
S,3934,15836033,535,0,0
S,3935,15839993,552,0,0
S,3936,15843964,555,0,0
S,3937,15848032,553,0,0
S,3938,15852004,555,0,0
S,3939,15855970,555,0,0
S,3940,15860020,551,0,0
S,3941,15863994,557,0,0
S,3942,15868024,559,0,0
S,3943,15871999,567,0,0
S,3944,15876010,564,0,0
S,3945,15880008,579,0,0
S,3946,15884018,583,0,0
S,3947,15888039,581,0,0
S,3948,15892008,573,0,0
S,3949,15895996,582,0,0
S,3950,15900001,604,0,0
S,3951,15903989,595,0,0
S,3952,15907969,597,0,0
S,3953,15911977,599,0,0
S,3954,15916016,610,0,0
S,3955,15919987,610,0,0
S,3956,15923990,611,0,0
S,3957,15928004,616,0,0
S,3958,15932033,616,0,0
S,3959,15935966,618,0,0
S,3960,15939985,630,0,0
S,3961,15943977,645,0,0
S,3962,15948022,638,0,0
S,3963,15952032,630,0,0
S,3964,15955987,625,0,0
S,3965,15959963,625,0,0
S,3966,15964007,637,0,0
S,3967,15968027,639,0,0
S,3968,15971997,630,0,0
S,3969,15975980,621,0,0
S,3970,15980025,628,0,0
S,3971,15983986,625,0,0
S,3972,15987963,621,0,0
S,3973,15991990,613,0,0
S,3974,15995996,610,0,0
S,3975,15999972,610,0,0
S,3976,16003987,617,0,0
S,3977,16007974,606,0,0
S,3978,16012037,596,0,0
S,3979,16016000,598,0,0
S,3980,16019979,596,0,0
S,3981,16024001,599,0,0
S,3982,16027969,582,0,0
S,3983,16031960,585,0,0
S,3984,16035994,572,0,0
S,3985,16040027,567,0,0
S,3986,16043999,573,0,0
S,3987,16047995,562,0,0
S,3988,16051983,554,0,0
S,3989,16056020,553,0,0
S,3990,16059969,563,0,0
S,3991,16063990,551,0,0
S,3992,16067994,557,0,0
S,3993,16071971,546,0,0
S,3994,16075968,553,0,0
S,3995,16080005,547,0,0
S,3996,16084021,552,0,0
S,3997,16088023,554,0,0
S,3998,16092018,532,0,0
S,3999,16095964,534,0,0
S,4005,16120031,533,0,0
S,4006,16123973,535,0,0
S,4007,16128015,536,0,0
S,4008,16132009,526,0,0
S,4009,16136022,523,0,0
S,4010,16139994,524,0,0
S,4011,16143998,537,0,0
S,4012,16148032,538,0,0
S,4013,16151994,523,0,0
S,4014,16155963,525,0,0
S,4015,16159994,519,0,0
S,4016,16164006,529,0,0
S,4017,16168033,535,0,0
S,4018,16172020,522,0,0
S,4019,16176015,530,0,0
S,4020,16179989,529,0,0
S,4021,16184028,538,0,0
S,4022,16187978,531,0,0
S,4023,16191999,520,0,0
S,4024,16195967,527,0,0
S,4025,16200005,535,0,0
S,4026,16203996,532,0,0
S,4027,16208018,536,0,0
S,4028,16211978,524,0,0
S,4029,16216027,524,0,0
S,4030,16219981,538,0,0
S,4031,16223968,535,0,0
S,4032,16227984,528,0,0
S,4033,16231969,531,0,0
S,4034,16236000,526,0,0
S,4035,16239970,527,0,0
S,4036,16244036,539,0,0
S,4037,16247965,516,0,0
S,4038,16252033,531,0,0
S,4039,16255976,537,0,0
S,4040,16259997,532,0,0
S,4041,16263990,524,0,0
S,4042,16268024,542,0,0
S,4043,16272025,544,0,0
S,4044,16276039,531,0,0
S,4045,16279965,527,0,0
S,4046,16283982,534,0,0
S,4047,16287963,536,0,0
S,4048,16292010,534,0,0
S,4049,16295981,540,0,0
S,4050,16300024,542,0,0
S,4051,16303996,531,0,0
S,4052,16308030,543,0,0
S,4053,16311972,540,0,0
S,4054,16316002,552,0,0
S,4055,16320007,544,0,0
S,4056,16323976,546,0,0
S,4057,16328014,552,0,0
S,4058,16331971,552,0,0
S,4059,16335962,540,0,0
S,4060,16339963,562,0,0
S,4061,16343985,560,0,0
S,4062,16347961,565,0,0
S,4063,16351987,559,0,0
S,4064,16356038,556,0,0
S,4065,16360013,565,0,0
S,4066,16363995,570,0,0
S,4067,16368014,555,0,0
S,4068,16371976,550,0,0
S,4069,16376034,553,0,0
S,4070,16379976,550,0,0
S,4071,16383973,548,0,0
S,4072,16388037,548,0,0
S,4073,16391978,535,0,0
S,4074,16396024,533,0,0
S,4075,16400005,519,0,0
S,4076,16403972,542,0,0
S,4077,16408028,548,0,0
S,4078,16412015,535,0,0
S,4079,16416008,532,0,0
S,4080,16419973,532,0,0
S,4081,16423973,529,0,0
S,4082,16428014,534,0,0
S,4083,16431996,525,0,0
S,4084,16436002,522,0,0
S,4085,16439980,528,0,0
S,4086,16444018,527,0,0
S,4087,16447998,529,0,0
S,4088,16452004,526,0,0
S,4089,16455979,526,0,0
S,4090,16460039,525,0,0
S,4091,16464016,533,0,0
S,4092,16468029,526,0,0
S,4093,16472036,504,0,0
S,4094,16475972,500,0,0
S,4095,16480032,508,0,0
S,4096,16483996,498,0,0
S,4097,16487973,498,0,0
S,4098,16491990,475,0,0
S,4099,16495964,478,0,0
S,4100,16499978,490,0,0
S,4101,16503990,513,0,0
S,4102,16508023,546,0,0
S,4103,16511966,589,0,0
S,4104,16515973,642,0,0
S,4105,16519965,700,0,0
S,4106,16523997,763,0,0
S,4107,16528031,804,0,0
S,4108,16532004,815,0,0
S,4109,16536030,806,0,0
S,4110,16539982,782,0,0
S,4111,16544025,741,0,0
S,4112,16548030,683,0,0
S,4113,16552015,625,0,0
S,4114,16556034,588,0,0
S,4115,16560007,542,0,0
S,4116,16563988,508,0,0
S,4117,16567982,487,0,0
S,4118,16572030,467,0,0
S,4119,16575988,461,0,0
S,4120,16580002,464,0,0
S,4121,16583975,457,0,0
S,4122,16587976,481,0,0
S,4123,16592005,466,0,0
S,4124,16595973,480,0,0
S,4125,16599989,489,0,0
S,4126,16603977,496,0,0
S,4127,16607965,500,0,0
S,4128,16612001,521,0,0
S,4129,16615985,520,0,0
S,4130,16619991,512,0,0
S,4131,16623983,517,0,0
S,4132,16627998,531,0,0
S,4133,16631963,512,0,0
S,4134,16635996,519,0,0
S,4135,16639970,533,0,0
S,4136,16644008,531,0,0
S,4137,16648018,534,0,0
S,4138,16651967,522,0,0
S,4139,16656035,510,0,0
S,4140,16660023,520,0,0
S,4141,16663968,520,0,0
S,4142,16667993,532,0,0
S,4143,16671966,518,0,0
S,4144,16676032,527,0,0
S,4145,16680028,529,0,0
S,4146,16684028,534,0,0
S,4147,16688011,542,0,0
S,4148,16691982,533,0,0
S,4149,16695969,532,0,0
S,4150,16700037,549,0,0
S,4151,16703964,551,0,0
S,4152,16707996,544,0,0
S,4153,16712027,557,0,0
S,4154,16716022,544,0,0
S,4155,16719977,561,0,0
S,4156,16723998,571,0,0
S,4157,16728038,568,0,0
S,4158,16732037,563,0,0
S,4159,16736013,568,0,0
S,4160,16740038,576,0,0
S,4161,16744035,579,0,0
S,4162,16747979,593,0,0
S,4163,16751960,582,0,0
S,4164,16755969,583,0,0
S,4165,16760006,603,0,0
S,4166,16764009,597,0,0
S,4167,16768000,593,0,0
S,4168,16771977,599,0,0
S,4169,16775963,599,0,0
S,4170,16780003,605,0,0
S,4171,16784006,623,0,0
S,4172,16787979,606,0,0
S,4173,16792019,612,0,0
S,4174,16796019,608,0,0
S,4175,16800013,615,0,0
S,4176,16803992,609,0,0
S,4177,16808008,604,0,0
S,4178,16812025,598,0,0
S,4179,16816019,597,0,0
S,4180,16819990,602,0,0
S,4181,16824013,608,0,0
S,4182,16828001,583,0,0
S,4183,16831986,591,0,0
S,4184,16836029,582,0,0
S,4185,16840033,580,0,0
S,4186,16844022,574,0,0
S,4187,16847970,577,0,0
S,4188,16852017,555,0,0
S,4189,16855970,567,0,0
S,4190,16860006,554,0,0
S,4191,16863962,560,0,0
S,4192,16867987,554,0,0
S,4193,16872007,549,0,0
S,4194,16875986,532,0,0
S,4195,16879993,546,0,0
S,4196,16884038,544,0,0
S,4197,16888033,546,0,0
S,4198,16892010,531,0,0
S,4199,16895993,524,0,0
S,4200,16900027,515,0,0
S,4201,16903965,526,0,0
S,4202,16907970,534,0,0
S,4203,16912033,514,0,0
S,4204,16915995,510,0,0
S,4205,16919989,515,0,0
S,4206,16923989,524,0,0
S,4207,16927967,505,0,0
S,4208,16932030,520,0,0
S,4209,16936033,510,0,0
S,4210,16939970,514,0,0
S,4211,16944019,513,0,0
S,4212,16948024,522,0,0
S,4213,16952038,502,0,0
S,4214,16956010,507,0,0
S,4215,16960030,507,0,0
S,4216,16964010,502,0,0
S,4217,16968039,507,0,0
S,4218,16971967,506,0,0
S,4219,16975970,498,0,0
S,4220,16980028,502,0,0
S,4221,16984027,508,0,0
S,4222,16987970,501,0,0
S,4223,16992012,494,0,0
S,4224,16995987,499,0,0
S,4225,17000004,497,0,0
S,4226,17004008,510,0,0
S,4227,17008032,509,0,0
S,4228,17011962,507,0,0
S,4229,17016023,503,0,0
S,4230,17019971,500,0,0
S,4231,17024036,508,0,0
S,4232,17027999,497,0,0
S,4233,17031979,501,0,0
S,4234,17035960,494,0,0
S,4235,17040017,509,0,0
S,4236,17043988,501,0,0
S,4237,17047995,504,0,0
S,4238,17052019,493,0,0
S,4239,17056014,500,0,0
S,4240,17060035,504,0,0
S,4241,17063968,498,0,0
S,4242,17067997,514,0,0
S,4243,17071984,500,0,0
S,4244,17076013,487,0,0
S,4245,17080027,494,0,0
S,4246,17084005,493,0,0
S,4247,17087978,491,0,0
S,4248,17091998,496,0,0
S,4249,17096032,483,0,0
S,4250,17099962,502,0,0
S,4251,17104014,495,0,0
S,4252,17108033,501,0,0
S,4253,17112033,509,0,0
S,4254,17116003,496,0,0
S,4255,17119993,503,0,0
S,4256,17123983,516,0,0
S,4257,17128008,506,0,0
S,4258,17132012,507,0,0
S,4259,17136016,499,0,0
S,4260,17140016,508,0,0
S,4261,17144033,517,0,0
S,4262,17147981,516,0,0
S,4263,17151961,508,0,0
S,4264,17155996,514,0,0
S,4265,17160031,523,0,0
S,4266,17163994,529,0,0
S,4267,17168011,525,0,0
S,4268,17171984,516,0,0
S,4269,17176032,525,0,0
S,4270,17180032,531,0,0
S,4271,17183998,524,0,0
S,4272,17188012,515,0,0
S,4273,17191997,522,0,0
S,4274,17196036,526,0,0
S,4275,17200012,529,0,0
S,4276,17203998,519,0,0
S,4277,17207992,531,0,0
S,4278,17212036,510,0,0
S,4279,17216008,517,0,0
S,4280,17219990,512,0,0
S,4281,17223984,522,0,0
S,4282,17227989,515,0,0
S,4283,17232029,504,0,0
S,4284,17236005,506,0,0
S,4285,17240027,500,0,0
S,4286,17244018,504,0,0
S,4287,17247967,502,0,0
S,4288,17251973,492,0,0
S,4289,17256011,500,0,0
S,4290,17259970,503,0,0
S,4291,17264037,501,0,0
S,4292,17267969,493,0,0
S,4293,17272026,495,0,0
S,4294,17275979,492,0,0
S,4295,17280036,498,0,0
S,4296,17283968,498,0,0
S,4297,17287973,495,0,0
S,4298,17291967,499,0,0
S,4299,17295971,485,0,0
S,4300,17299968,491,0,0
S,4301,17304007,483,0,0
S,4302,17307996,487,0,0
S,4303,17311964,475,0,0
S,4304,17316030,466,0,0
S,4305,17320026,467,0,0
S,4306,17323983,457,0,0
S,4307,17328026,458,0,0
S,4308,17331967,454,0,0
S,4309,17336008,468,0,0
S,4310,17340013,492,0,0
S,4311,17343979,551,0,0
S,4312,17348033,603,0,0
S,4313,17351998,645,0,0
S,4314,17355970,702,0,0
S,4315,17359993,746,0,0
S,4316,17364015,786,0,0
S,4317,17367977,784,0,0
S,4318,17372024,767,0,0
S,4319,17376028,721,0,0
S,4320,17380021,676,0,0
S,4321,17384038,615,0,0
S,4322,17388022,556,0,0
S,4323,17391988,515,0,0
S,4324,17395961,476,0,0
S,4325,17400026,469,0,0
S,4326,17403993,447,0,0
S,4327,17408008,442,0,0
S,4328,17411961,427,0,0
S,4329,17415986,422,0,0
S,4330,17419971,425,0,0
S,4331,17424017,445,0,0
S,4332,17428032,458,0,0
S,4333,17431987,460,0,0
S,4334,17436000,468,0,0
S,4335,17439999,480,0,0
S,4336,17444025,479,0,0
S,4337,17447963,491,0,0
S,4338,17452031,482,0,0
S,4339,17455998,486,0,0
S,4340,17459961,500,0,0
S,4341,17464013,485,0,0
S,4342,17467968,494,0,0
S,4343,17472018,493,0,0
S,4344,17475966,497,0,0
S,4345,17479991,496,0,0
S,4346,17484024,496,0,0
S,4347,17488004,504,0,0
S,4348,17492003,499,0,0
S,4349,17496001,485,0,0
S,4350,17500001,501,0,0
S,4351,17503987,497,0,0
S,4352,17508019,491,0,0
S,4353,17512010,497,0,0
S,4354,17515994,498,0,0
S,4355,17519982,498,0,0
S,4356,17523993,528,0,0
S,4357,17528027,510,0,0
S,4358,17531960,518,0,0
S,4359,17535985,521,0,0
S,4360,17539994,537,0,0
S,4361,17543969,530,0,0
S,4362,17547968,544,0,0
S,4363,17552034,526,0,0
S,4364,17555963,534,0,0
S,4365,17559998,540,0,0
S,4366,17564018,545,0,0
S,4367,17568022,555,0,0
S,4368,17571969,563,0,0
S,4369,17576038,566,0,0
S,4370,17579985,566,0,0
S,4371,17584032,563,0,0
S,4372,17587978,567,0,0
S,4373,17591996,573,0,0
S,4374,17596002,575,0,0
S,4375,17600000,581,0,0
S,4376,17604021,583,0,0
S,4377,17607988,580,0,0
S,4378,17612009,584,0,0
S,4379,17615969,581,0,0
S,4380,17619996,595,0,0
S,4381,17623988,587,0,0
S,4382,17627984,595,0,0
S,4383,17632038,593,0,0
S,4384,17635993,594,0,0
S,4385,17640023,597,0,0
S,4386,17643984,582,0,0
S,4387,17647966,577,0,0
S,4388,17651966,578,0,0
S,4389,17655991,567,0,0
S,4390,17660020,560,0,0
S,4391,17664003,584,0,0
S,4392,17667977,573,0,0
S,4393,17671999,568,0,0
S,4394,17675976,557,0,0
S,4395,17679984,564,0,0
S,4396,17683978,559,0,0
S,4397,17687974,553,0,0
S,4398,17692000,554,0,0
S,4399,17696000,530,0,0
S,4400,17700014,541,0,0
S,4401,17703989,529,0,0
S,4402,17707973,542,0,0
S,4403,17712011,524,0,0
S,4404,17715969,513,0,0
S,4405,17719991,510,0,0
S,4406,17723996,521,0,0
S,4407,17728017,530,0,0
S,4408,17732008,514,0,0
S,4409,17735982,498,0,0
S,4410,17740006,497,0,0
S,4411,17744014,529,0,0
S,4412,17747993,505,0,0
S,4413,17751980,493,0,0
S,4414,17755987,499,0,0
S,4415,17759991,505,0,0
S,4416,17764006,514,0,0
S,4417,17768013,501,0,0
S,4418,17772031,492,0,0
S,4419,17776023,498,0,0
S,4420,17779991,493,0,0
S,4421,17784003,503,0,0
S,4422,17788008,500,0,0
S,4423,17792038,499,0,0
S,4424,17795960,487,0,0
S,4425,17800039,492,0,0
S,4426,17803964,502,0,0
S,4427,17808011,501,0,0
S,4428,17812018,484,0,0
S,4429,17816016,486,0,0
S,4430,17820030,496,0,0
S,4431,17824000,497,0,0
S,4432,17828004,512,0,0
S,4433,17832021,497,0,0
S,4434,17836036,499,0,0
S,4435,17840018,495,0,0
S,4436,17843965,500,0,0
S,4437,17847974,499,0,0
S,4438,17851972,499,0,0
S,4439,17856022,489,0,0
S,4440,17860018,505,0,0
S,4441,17863976,496,0,0
S,4442,17867974,505,0,0
S,4443,17872021,495,0,0
S,4444,17876038,490,0,0
S,4445,17880034,506,0,0
S,4446,17883992,507,0,0
S,4447,17888006,498,0,0
S,4448,17892030,489,0,0
S,4449,17896012,498,0,0
S,4450,17899995,492,0,0
S,4451,17903970,505,0,0
S,4452,17907986,495,0,0
S,4453,17912014,496,0,0
S,4454,17915960,488,0,0
S,4455,17920039,497,0,0
S,4456,17924025,513,0,0
S,4457,17928020,512,0,0
S,4458,17931969,494,0,0
S,4459,17935973,494,0,0
S,4460,17940013,490,0,0
S,4461,17944032,507,0,0
S,4462,17948023,512,0,0
S,4463,17952027,495,0,0
S,4464,17956031,495,0,0
S,4465,17960025,508,0,0
S,4466,17963998,508,0,0
S,4467,17968000,513,0,0
S,4468,17972020,518,0,0
S,4469,17975962,512,0,0
S,4470,17980034,519,0,0
S,4471,17984000,533,0,0
S,4472,17988014,524,0,0
S,4473,17991979,523,0,0
S,4474,17995987,520,0,0
S,4475,17999980,521,0,0
S,4476,18004006,542,0,0
S,4477,18008012,523,0,0
S,4478,18012036,528,0,0
S,4479,18016006,520,0,0
S,4480,18020003,526,0,0
S,4481,18024002,528,0,0
S,4482,18027977,532,0,0
S,4483,18032026,530,0,0
S,4484,18036019,532,0,0
S,4485,18040017,516,0,0
S,4486,18044037,531,0,0
S,4487,18048022,524,0,0
S,4488,18051994,516,0,0
S,4489,18055983,515,0,0
S,4490,18059962,519,0,0
S,4491,18063969,520,0,0
S,4492,18068014,517,0,0
S,4493,18072038,524,0,0
S,4494,18075994,508,0,0
S,4495,18079974,512,0,0
S,4496,18083985,507,0,0
S,4497,18087968,518,0,0
S,4498,18092024,502,0,0
S,4499,18096001,502,0,0
S,4500,18100016,502,0,0
S,4501,18104001,510,0,0
S,4502,18108015,503,0,0
S,4503,18112027,495,0,0
S,4504,18116027,493,0,0
S,4505,18119966,503,0,0
S,4506,18123968,510,0,0
S,4507,18128018,512,0,0
S,4508,18132022,512,0,0
S,4509,18135972,510,0,0
S,4510,18139986,497,0,0
S,4511,18143989,496,0,0
S,4512,18147981,496,0,0
S,4513,18152023,473,0,0
S,4514,18155980,475,0,0
S,4515,18160033,474,0,0
S,4516,18164022,469,0,0
S,4517,18168024,490,0,0
S,4518,18171975,513,0,0
S,4519,18175986,544,0,0
S,4520,18180020,592,0,0
S,4521,18184003,654,0,0
S,4522,18188020,714,0,0
S,4523,18191977,752,0,0
S,4524,18195997,792,0,0
S,4525,18200030,805,0,0
S,4526,18203966,794,0,0
S,4527,18207962,756,0,0
S,4528,18211985,710,0,0
S,4529,18216023,643,0,0
S,4530,18219998,600,0,0
S,4531,18223969,544,0,0
S,4532,18228025,515,0,0
S,4533,18232022,483,0,0
S,4534,18235984,463,0,0
S,4535,18239978,458,0,0
S,4536,18244032,454,0,0
S,4537,18248025,453,0,0
S,4538,18252005,447,0,0
S,4539,18256002,449,0,0
S,4540,18260038,462,0,0
S,4541,18263990,479,0,0
S,4542,18267987,493,0,0
S,4543,18272003,500,0,0
S,4544,18275976,501,0,0
S,4545,18280027,508,0,0
S,4546,18283968,519,0,0
S,4547,18288010,513,0,0
S,4548,18292028,512,0,0
S,4549,18296015,510,0,0
S,4550,18300036,517,0,0
S,4551,18303964,519,0,0
S,4552,18308035,512,0,0
S,4553,18311962,513,0,0
S,4554,18315992,510,0,0
S,4555,18320031,531,0,0
S,4556,18324006,534,0,0
S,4557,18328033,522,0,0
S,4558,18332016,517,0,0
S,4559,18335968,522,0,0
S,4560,18339960,519,0,0
S,4561,18343972,541,0,0
S,4562,18347972,534,0,0
S,4563,18351964,529,0,0
S,4564,18355978,539,0,0
S,4565,18360039,547,0,0
S,4566,18364027,548,0,0
S,4567,18367995,554,0,0
S,4568,18372005,536,0,0
S,4569,18375974,543,0,0
S,4570,18379999,551,0,0
S,4571,18383983,554,0,0
S,4572,18387960,571,0,0
S,4573,18391984,579,0,0
S,4574,18395996,559,0,0
S,4575,18399985,572,0,0
S,4576,18404024,590,0,0
S,4577,18407998,584,0,0
S,4578,18411988,585,0,0
S,4579,18415997,582,0,0
S,4580,18420004,597,0,0
S,4581,18424002,597,0,0
S,4582,18428017,609,0,0
S,4583,18431967,605,0,0
S,4584,18436018,605,0,0
S,4585,18440026,605,0,0
S,4586,18443976,615,0,0
S,4587,18447982,619,0,0
S,4588,18451970,606,0,0
S,4589,18456002,605,0,0
S,4590,18460002,602,0,0
S,4591,18464029,617,0,0
S,4592,18467972,617,0,0
S,4593,18472017,617,0,0
S,4594,18475992,601,0,0
S,4595,18479985,603,0,0
S,4596,18483977,621,0,0
S,4597,18487969,616,0,0
S,4598,18491969,595,0,0
S,4599,18495998,594,0,0
S,4600,18499986,587,0,0
S,4601,18503961,599,0,0
S,4602,18507993,601,0,0
S,4603,18511966,590,0,0
S,4604,18515999,573,0,0
S,4605,18520035,582,0,0
S,4606,18524039,576,0,0
S,4607,18527997,577,0,0
S,4608,18531983,563,0,0
S,4609,18535965,565,0,0
S,4610,18539998,570,0,0
S,4611,18544010,565,0,0
S,4612,18547974,561,0,0
S,4613,18552033,552,0,0
S,4614,18556006,551,0,0
S,4615,18559978,545,0,0
S,4616,18563995,548,0,0
S,4617,18567966,544,0,0
S,4618,18571987,546,0,0
S,4619,18576025,536,0,0
S,4620,18580039,541,0,0
S,4621,18584017,538,0,0
S,4622,18588028,529,0,0
S,4623,18591980,529,0,0
S,4624,18595967,531,0,0
S,4625,18599980,529,0,0
S,4626,18603980,531,0,0
S,4627,18608037,530,0,0
S,4628,18612032,530,0,0
S,4629,18616021,527,0,0
S,4630,18620035,528,0,0
S,4631,18623981,527,0,0
S,4632,18627960,526,0,0
S,4633,18632011,546,0,0
S,4634,18636026,522,0,0
S,4635,18639999,531,0,0
S,4636,18643962,533,0,0
S,4637,18648000,522,0,0
S,4638,18652026,532,0,0
S,4639,18656022,523,0,0
S,4640,18659972,522,0,0
S,4641,18663990,536,0,0
S,4642,18667994,527,0,0
S,4643,18672025,527,0,0
S,4644,18675974,515,0,0
S,4645,18679969,527,0,0
S,4646,18683976,536,0,0
S,4647,18687974,528,0,0
S,4648,18691965,517,0,0
S,4649,18695965,519,0,0
S,4650,18700007,532,0,0
S,4651,18704033,523,0,0
S,4652,18707960,523,0,0
S,4653,18711997,530,0,0
S,4654,18716015,525,0,0
S,4655,18719974,528,0,0
S,4656,18723993,530,0,0
S,4657,18728015,534,0,0
S,4658,18731965,531,0,0
S,4659,18736007,527,0,0
S,4660,18739986,519,0,0
S,4661,18744030,537,0,0
S,4662,18747960,522,0,0
S,4663,18751968,537,0,0
S,4664,18755995,523,0,0
S,4665,18760021,534,0,0
S,4666,18764013,537,0,0
S,4667,18767986,530,0,0
S,4668,18772024,536,0,0
S,4669,18776022,530,0,0
S,4670,18779979,546,0,0
S,4671,18783981,543,0,0
S,4672,18787979,540,0,0
S,4673,18791961,549,0,0
S,4674,18795973,542,0,0
S,4675,18800010,540,0,0
S,4676,18804013,541,0,0
S,4677,18808017,558,0,0
S,4678,18811996,550,0,0
S,4679,18816037,551,0,0
S,4680,18820039,548,0,0
S,4681,18824006,553,0,0
S,4682,18828010,552,0,0
S,4683,18832033,560,0,0
S,4684,18835966,553,0,0
S,4685,18840037,563,0,0
S,4686,18843970,552,0,0
S,4687,18847994,570,0,0
S,4688,18851977,555,0,0
S,4689,18856004,541,0,0
S,4690,18859967,554,0,0
S,4691,18864029,567,0,0
S,4692,18868012,571,0,0
S,4693,18871966,539,0,0
S,4694,18875976,544,0,0
S,4695,18879988,555,0,0
S,4696,18884024,547,0,0
S,4697,18887987,550,0,0
S,4698,18891967,539,0,0
S,4699,18895986,543,0,0
S,4700,18900014,536,0,0
S,4701,18904034,545,0,0
S,4702,18908015,539,0,0
S,4703,18912005,538,0,0
S,4704,18915987,533,0,0
S,4705,18920032,543,0,0
S,4706,18924018,542,0,0
S,4707,18927974,549,0,0
S,4708,18931970,523,0,0
S,4709,18935964,528,0,0
S,4710,18939984,538,0,0
S,4711,18943994,538,0,0
S,4712,18948004,520,0,0
S,4713,18951990,532,0,0
S,4714,18955968,526,0,0
S,4715,18959997,547,0,0
S,4716,18964012,536,0,0
S,4717,18967976,538,0,0
S,4718,18971966,520,0,0
S,4719,18976033,524,0,0
S,4720,18980036,501,0,0
S,4721,18984021,508,0,0
S,4722,18987975,502,0,0
S,4723,18992014,483,0,0
S,4724,18995960,496,0,0
S,4725,19000037,503,0,0
S,4726,19003971,538,0,0
S,4727,19008004,551,0,0
S,4728,19011985,594,0,0
S,4729,19015972,656,0,0
S,4730,19020014,711,0,0
S,4731,19024013,777,0,0
S,4732,19027989,816,0,0
S,4733,19032038,823,0,0
S,4734,19036014,822,0,0
S,4735,19039965,800,0,0
S,4736,19043993,757,0,0
S,4737,19047978,697,0,0
S,4738,19052008,634,0,0
S,4739,19055991,583,0,0
S,4740,19060016,554,0,0
S,4741,19063980,533,0,0
S,4742,19068007,488,0,0
S,4743,19072000,470,0,0
S,4744,19075981,465,0,0
S,4745,19080006,477,0,0
S,4746,19084025,471,0,0
S,4747,19087993,495,0,0
S,4748,19092019,499,0,0
S,4749,19096036,479,0,0
S,4750,19100016,511,0,0
S,4751,19103978,523,0,0
S,4752,19107992,522,0,0
S,4753,19112032,513,0,0
S,4754,19116020,527,0,0
S,4755,19119991,530,0,0
S,4756,19123965,545,0,0
S,4757,19127977,541,0,0
S,4758,19132031,527,0,0
S,4759,19136019,543,0,0
S,4760,19139974,548,0,0
S,4761,19143966,550,0,0
S,4762,19147984,541,0,0
S,4763,19152038,542,0,0
S,4764,19155999,536,0,0
S,4765,19160015,538,0,0
S,4766,19163993,535,0,0
S,4767,19168006,548,0,0
S,4768,19172009,530,0,0
S,4769,19175989,547,0,0
S,4770,19179966,540,0,0
S,4771,19183965,556,0,0
S,4772,19187968,554,0,0
S,4773,19191990,546,0,0
S,4774,19195987,548,0,0
S,4775,19199961,557,0,0
S,4776,19204028,577,0,0
S,4777,19208028,572,0,0
S,4778,19212039,566,0,0
S,4779,19216028,575,0,0
S,4780,19219979,570,0,0
S,4781,19224019,576,0,0
S,4782,19227993,582,0,0
S,4783,19231982,592,0,0
S,4784,19235975,586,0,0
S,4785,19240018,597,0,0
S,4786,19244012,605,0,0
S,4787,19247983,603,0,0
S,4788,19252014,612,0,0
S,4789,19256020,610,0,0
S,4790,19260013,608,0,0
S,4791,19264014,614,0,0
S,4792,19268038,621,0,0
S,4793,19271968,613,0,0
S,4794,19276030,618,0,0
S,4795,19280024,629,0,0
S,4796,19283999,630,0,0
S,4797,19287961,630,0,0
S,4798,19292007,620,0,0
S,4799,19295982,617,0,0
S,4800,19299962,619,0,0
S,4801,19303989,637,0,0
S,4802,19307995,621,0,0
S,4803,19312002,619,0,0
S,4804,19315968,615,0,0
S,4805,19319993,619,0,0
S,4806,19323991,616,0,0
S,4807,19327972,603,0,0
S,4808,19332009,617,0,0
S,4809,19336021,593,0,0
S,4810,19339996,604,0,0
S,4811,19344036,594,0,0
S,4812,19347963,599,0,0
S,4813,19352015,579,0,0
S,4814,19356006,590,0,0
S,4815,19359968,583,0,0
S,4816,19363996,571,0,0
S,4817,19367997,586,0,0
S,4818,19371986,555,0,0
S,4819,19375989,559,0,0
S,4820,19380022,569,0,0
S,4821,19383979,560,0,0
S,4822,19388026,566,0,0
S,4823,19392014,550,0,0
S,4824,19396013,542,0,0
S,4825,19400007,555,0,0
S,4826,19403980,549,0,0
S,4827,19408005,542,0,0
S,4828,19412037,544,0,0
S,4829,19415965,533,0,0
S,4830,19419963,529,0,0
S,4831,19423985,535,0,0
S,4832,19427978,552,0,0
S,4833,19432009,544,0,0
S,4834,19436032,518,0,0
S,4835,19439966,536,0,0
S,4836,19443982,542,0,0
S,4837,19447970,530,0,0
S,4838,19452000,530,0,0
S,4839,19455962,517,0,0
S,4840,19460034,525,0,0
S,4841,19464012,538,0,0
S,4842,19467963,529,0,0
S,4843,19471980,522,0,0
S,4844,19475981,520,0,0
S,4845,19479981,517,0,0
S,4846,19483993,523,0,0
S,4847,19488011,524,0,0
S,4848,19492023,521,0,0
S,4849,19496001,515,0,0
S,4850,19500017,536,0,0
S,4851,19503974,517,0,0
S,4852,19507999,520,0,0
S,4853,19512019,517,0,0
S,4854,19515972,522,0,0
S,4855,19519992,514,0,0
S,4856,19523960,529,0,0
S,4857,19527985,520,0,0
S,4858,19532017,515,0,0
S,4859,19535964,521,0,0
S,4860,19540021,528,0,0
S,4861,19543977,533,0,0
S,4862,19547984,518,0,0
S,4863,19552006,526,0,0
S,4864,19555963,524,0,0
S,4865,19560015,524,0,0
S,4866,19563960,529,0,0
S,4867,19567964,524,0,0
S,4868,19571961,518,0,0
S,4869,19575984,522,0,0
S,4870,19580038,532,0,0
S,4871,19583994,524,0,0
S,4872,19588005,526,0,0
S,4873,19592020,525,0,0
S,4874,19595990,509,0,0
S,4875,19599976,532,0,0
S,4876,19603964,529,0,0
S,4877,19608024,534,0,0
S,4878,19611968,519,0,0
S,4879,19616034,514,0,0
S,4880,19619982,524,0,0
S,4881,19624021,532,0,0
S,4882,19628011,524,0,0
S,4883,19632009,531,0,0
S,4884,19635996,527,0,0
S,4885,19640002,525,0,0
S,4886,19644034,540,0,0
S,4887,19648031,537,0,0
S,4888,19651977,534,0,0
S,4889,19656038,532,0,0
S,4890,19659985,536,0,0
S,4891,19664007,539,0,0
S,4892,19667978,547,0,0
S,4893,19671975,543,0,0
S,4894,19675999,545,0,0
S,4895,19679992,542,0,0
S,4896,19683997,554,0,0
S,4897,19688005,555,0,0
S,4898,19692027,537,0,0
S,4899,19696002,543,0,0
S,4900,19699984,558,0,0
S,4901,19704005,544,0,0
S,4902,19708009,542,0,0
S,4903,19711982,536,0,0
S,4904,19715987,529,0,0
S,4905,19719969,540,0,0
S,4906,19723978,536,0,0
S,4907,19728026,532,0,0
S,4908,19731961,520,0,0
S,4909,19735975,525,0,0
S,4910,19739965,523,0,0
S,4911,19744027,524,0,0
S,4912,19748008,521,0,0
S,4913,19752016,526,0,0
S,4914,19756034,514,0,0
S,4915,19759991,519,0,0
S,4916,19763999,529,0,0
S,4917,19767995,517,0,0
S,4918,19771988,518,0,0
S,4919,19776021,504,0,0
S,4920,19780036,518,0,0
S,4921,19783967,504,0,0
S,4922,19788036,516,0,0
S,4923,19791972,507,0,0
S,4924,19796015,503,0,0
S,4925,19799975,517,0,0
S,4926,19803972,517,0,0
S,4927,19807993,513,0,0
S,4928,19811994,506,0,0
S,4929,19815991,490,0,0
S,4930,19819971,486,0,0
S,4931,19824036,479,0,0
S,4932,19828006,486,0,0
S,4933,19831978,479,0,0
S,4934,19835961,484,0,0
S,4935,19839972,516,0,0
S,4936,19844027,562,0,0
S,4937,19848001,612,0,0
S,4938,19852026,677,0,0
S,4939,19856032,725,0,0
S,4940,19860000,780,0,0
S,4941,19863977,801,0,0
S,4942,19867970,803,0,0
S,4943,19871976,789,0,0
S,4944,19875971,727,0,0
S,4945,19879995,682,0,0
S,4946,19883978,624,0,0
S,4947,19887971,578,0,0
S,4948,19891998,548,0,0
S,4949,19896024,491,0,0
S,4950,19899999,481,0,0
S,4951,19904013,471,0,0
S,4952,19907973,445,0,0
S,4953,19912021,436,0,0
S,4954,19915985,442,0,0
S,4955,19919977,454,0,0
S,4956,19923969,452,0,0
S,4957,19928025,465,0,0
S,4958,19931971,485,0,0
S,4959,19936013,477,0,0
S,4960,19940013,495,0,0
S,4961,19944026,509,0,0
S,4962,19948014,502,0,0
S,4963,19952026,500,0,0
S,4964,19955986,498,0,0
S,4965,19960016,502,0,0
S,4966,19963967,507,0,0
S,4967,19968020,500,0,0
S,4968,19971969,502,0,0
S,4969,19976009,503,0,0
S,4970,19980010,513,0,0
S,4971,19983963,511,0,0
S,4972,19987981,509,0,0
S,4973,19992001,520,0,0
S,4974,19995968,508,0,0
S,4975,19999981,512,0,0
S,4976,20003973,516,0,0
S,4977,20007973,519,0,0
S,4978,20012029,510,0,0
S,4979,20015979,513,0,0
S,4980,20019974,517,0,0
S,4981,20023991,521,0,0
S,4982,20028022,527,0,0
S,4983,20032022,519,0,0
S,4984,20035977,539,0,0
S,4985,20039979,529,0,0
S,4986,20043998,554,0,0
S,4987,20048009,547,0,0
S,4988,20051993,548,0,0
S,4989,20055981,554,0,0
S,4990,20059976,543,0,0
S,4991,20064032,571,0,0
S,4992,20068034,566,0,0
S,4993,20071984,558,0,0
S,4994,20076012,559,0,0
S,4995,20079992,574,0,0
S,4996,20084015,569,0,0
S,4997,20087985,592,0,0
S,4998,20091978,578,0,0
S,4999,20096013,585,0,0
S,5000,20099995,588,0,0
S,5001,20103969,591,0,0
S,5002,20108016,591,0,0
S,5003,20111980,585,0,0
S,5004,20115960,597,0,0
S,5005,20120025,595,0,0
S,5006,20123980,602,0,0
S,5007,20128002,600,0,0
S,5008,20132019,596,0,0
S,5009,20135991,592,0,0
S,5010,20139980,600,0,0
S,5011,20143967,591,0,0
S,5012,20147981,585,0,0
S,5013,20151981,583,0,0
S,5014,20155995,577,0,0
S,5015,20160035,581,0,0
S,5016,20164015,588,0,0
S,5017,20167964,582,0,0
S,5018,20171998,571,0,0
S,5019,20175986,557,0,0
S,5020,20180000,565,0,0
S,5021,20183989,564,0,0
S,5022,20187971,561,0,0
S,5023,20191975,548,0,0
S,5024,20195962,540,0,0
S,5025,20200033,543,0,0
S,5026,20203960,539,0,0
S,5027,20208010,532,0,0
S,5028,20212016,530,0,0
S,5029,20216001,524,0,0
S,5030,20220015,531,0,0
S,5031,20224031,527,0,0
S,5032,20228035,515,0,0
S,5033,20232039,522,0,0
S,5034,20235961,520,0,0
S,5035,20240015,505,0,0
S,5036,20243977,511,0,0
S,5037,20247998,517,0,0
S,5038,20251975,505,0,0
S,5039,20256037,492,0,0
S,5040,20259989,510,0,0
S,5041,20264020,507,0,0
S,5042,20267984,506,0,0
S,5043,20272006,504,0,0
S,5044,20275969,491,0,0
S,5045,20279965,494,0,0
S,5046,20283990,506,0,0
S,5047,20287979,505,0,0
S,5048,20291988,495,0,0
S,5049,20296031,499,0,0
S,5050,20300008,498,0,0
S,5051,20303970,506,0,0
S,5052,20308027,493,0,0
S,5053,20311979,491,0,0
S,5054,20316003,497,0,0
S,5055,20320004,489,0,0
S,5056,20324009,494,0,0
S,5057,20327970,497,0,0
S,5058,20332020,489,0,0
S,5059,20336032,484,0,0
S,5060,20339971,484,0,0
S,5061,20343976,506,0,0
S,5062,20348018,496,0,0
S,5063,20352032,499,0,0
S,5064,20355996,483,0,0
S,5065,20359996,493,0,0
S,5066,20364011,496,0,0
S,5067,20367989,496,0,0
S,5068,20371979,481,0,0
S,5069,20376035,496,0,0
S,5070,20380020,491,0,0
S,5071,20383972,498,0,0
S,5072,20388000,489,0,0
S,5073,20392003,499,0,0
S,5074,20395962,479,0,0
S,5075,20400003,503,0,0
S,5076,20403996,494,0,0
S,5077,20407968,493,0,0
S,5078,20411964,485,0,0
S,5079,20415991,496,0,0
S,5080,20420009,487,0,0
S,5081,20424029,492,0,0
S,5082,20428037,490,0,0
S,5083,20431982,493,0,0
S,5084,20436003,492,0,0
S,5085,20440016,489,0,0
S,5086,20443978,502,0,0
S,5087,20447977,507,0,0
S,5088,20452023,497,0,0
S,5089,20455965,495,0,0
S,5090,20460000,492,0,0
S,5091,20463976,513,0,0
S,5092,20467985,508,0,0
S,5093,20471986,492,0,0
S,5094,20476031,496,0,0
S,5095,20479964,490,0,0
S,5096,20484035,516,0,0
S,5097,20487999,506,0,0
S,5098,20492030,509,0,0
S,5099,20496007,519,0,0
S,5100,20499965,508,0,0
S,5101,20503982,527,0,0
S,5102,20508014,520,0,0
S,5103,20512019,511,0,0
S,5104,20515981,524,0,0
S,5105,20519979,523,0,0
S,5106,20523963,521,0,0
S,5107,20528021,526,0,0
S,5108,20532016,513,0,0
S,5109,20535963,508,0,0
S,5110,20539980,514,0,0
S,5111,20543982,525,0,0
S,5112,20547995,506,0,0
S,5113,20552004,500,0,0
S,5114,20556020,509,0,0
S,5115,20560034,498,0,0
S,5116,20564033,507,0,0
S,5117,20567972,503,0,0
S,5118,20572010,490,0,0
S,5119,20575992,490,0,0
S,5120,20580031,497,0,0
S,5121,20584017,500,0,0
S,5122,20587964,502,0,0
S,5123,20591980,493,0,0
S,5124,20596014,495,0,0
S,5125,20600014,494,0,0
S,5126,20604010,494,0,0
S,5127,20607986,498,0,0
S,5128,20611998,492,0,0
S,5129,20615979,492,0,0
S,5130,20620004,490,0,0
